Wavelength,Abs
200,9.82321177857005
201,9.54690156741076
202,9.02344720758622
203,8.55563868487683
204,8.12467150062949
205,7.72133533749808
206,7.3686560694384
207,7.05205061915172
208,6.76000606117307
209,6.49636006802525
210,6.26072886785081
211,6.0519611450774
212,5.86852188135278
213,5.70772467367479
214,5.55882418634508
215,5.42911187742251
216,5.31283133022631
217,5.20959877289903
218,5.11020384204283
219,5.01349526813709
220,4.92829961969631
221,4.85691948181349
222,4.79129580666316
223,4.72605590337028
224,4.6585134149844
225,4.58828456964809
226,4.51191548972183
227,4.43017371892054
228,4.34190796469772
229,4.24251303384153
230,4.13736164025285
231,4.02491874255359
232,3.91209207299688
233,3.79350894070769
234,3.67185570263646
235,3.55979655376879
236,3.44965624116253
237,3.34450484757385
238,3.23858593329613
239,3.14110983870133
240,3.05399535399915
241,2.96956724927327
242,2.89243064865797
243,2.82066673891771
244,2.75581058445642
245,2.69709466458508
246,2.64490275116111
247,2.59769975675473
248,2.55395063998785
249,2.51787679918899
250,2.48410554348313
251,2.45302064472771
252,2.42500587478018
253,2.39660730994935
254,2.37204641764132
255,2.34978808740042
256,2.32714600832793
257,2.30642274249099
258,2.28608322548564
259,2.26344114641315
260,2.24348540126525
261,2.21969202964626
262,2.19858499195186
263,2.17786172611492
264,2.15828975282447
265,2.13488015306293
266,2.11300559467949
267,2.08921220003465
268,2.06465130772661
269,2.04239297748572
270,2.02243723233782
271,1.99518998307934
272,1.97293165283845
273,1.94913828121946
274,1.92572865843207
275,1.90040022240914
276,1.8750717863862
277,1.85012712222072
278,1.82825256383727
279,1.80100531457879
280,1.77145545720147
281,1.74190562285
282,1.71350708104502
283,1.68664358061814
284,1.65786126695571
285,1.62907895329329
286,1.60144793217736
287,1.57074680527939
288,1.54004565535557
289,1.51279840609709
290,1.48209727919912
291,1.45331496553669
292,1.42376510815937
293,1.3930639812614
294,1.36428166759897
295,1.33665064648304
296,1.30901962536711
297,1.28177237610864
298,1.25490887568176
299,1.23111550406277
300,1.20808965313283
301,1.18314496594149
302,1.16127040755805
303,1.14323349867154
304,1.1225102328346
305,1.1025544876867
306,1.08413380694275
307,1.06379431296325
308,1.04575740407675
309,1.03270941420783
310,1.01544002601037
311,1.00047322290591
312,0.983203834708458
313,0.966318218368452
314,0.954421521046032
315,0.940989782345517
316,0.926790499930104
317,0.914126281918636
318,0.899926999503223
319,0.887646553349205
320,0.876133627884234
321,0.866155766823211
322,0.852340256265246
323,0.838140973849833
324,0.823941691434419
325,0.814347602230844
326,0.800915840504479
327,0.787100329946514
328,0.780576346524982
329,0.770214713606508
330,0.756399203048544
331,0.74642134198752
332,0.736443457900645
333,0.727616889386119
334,0.714952671374651
335,0.70382351776713
336,0.69231059230216
337,0.683484000761782
338,0.673889911558208
339,0.662760734924836
340,0.652015353174764
341,0.643956305349285
342,0.637816070759351
343,0.627454437840878
344,0.619011618157949
345,0.607882464550428
346,0.597904603489404
347,0.587926719402529
348,0.580635215291949
349,0.570657331205074
350,0.560295698286601
351,0.551085357914625
352,0.543793853804044
353,0.534967262263666
354,0.524989401202642
355,0.518849166612708
356,0.510790118787229
357,0.499277193322259
358,0.494288274304672
359,0.486996747168241
360,0.479705220031809
361,0.474716301014223
362,0.4639708962383
363,0.45629562027027
364,0.449004093133839
365,0.442096337854857
366,0.436339875122372
367,0.42943211984339
368,0.422908136421857
369,0.415232837427976
370,0.409092625863892
371,0.40218487058491
372,0.396044635994976
373,0.393742050901982
374,0.386066774933952
375,0.380310312201467
376,0.374553849468982
377,0.370716199972041
378,0.365727257928604
379,0.35958704636452
380,0.353446811774586
381,0.349609162277646
382,0.344620243260059
383,0.339247529359172
384,0.333107317795089
385,0.328118375751652
386,0.32504826996961
387,0.320443099783622
388,0.315070385882735
389,0.310465215696747
390,0.308546402461202
391,0.302789939728717
392,0.298568541400178
393,0.294730891903238
394,0.290509493574699
395,0.286288072220309
396,0.282834194580818
397,0.280915381345274
398,0.275542690470238
399,0.27093752028425
400,0.268251163333806
401,0.265948578240812
402,0.261343408054824
403,0.256738237868836
404,0.254819424633291
405,0.252900588371896
406,0.248295418185908
407,0.24752789749686
408,0.244841540546417
409,0.239468849671381
410,0.237166264578387
411,0.236782492720937
412,0.234479907627943
413,0.229874737441955
414,0.226037110970866
415,0.224885818424369
416,0.223350754020422
417,0.222583233331375
418,0.21644299874144
419,0.215291706194943
420,0.212221600412902
421,0.210302764151506
422,0.209919015319908
423,0.20493007327647
424,0.202627488183476
425,0.20109242377953
426,0.200324903090482
427,0.198022317997488
428,0.195719732904494
429,0.1934171478115
430,0.191114562718506
431,0.189579498314559
432,0.188811977625512
433,0.184206807439524
434,0.183439286750476
435,0.18190422234653
436,0.181136701657482
437,0.178450344707039
438,0.174612695210098
439,0.173077653832003
440,0.171542589428056
441,0.169240004335062
442,0.165786126695571
443,0.165786126695571
444,0.16271602091353
445,0.163483541602577
446,0.160797184652134
447,0.158110850727541
448,0.155040721919649
449,0.154273201230601
450,0.151970616137607
451,0.151970616137607
452,0.148900510355565
453,0.148132966640667
454,0.150435551733661
455,0.149284259187164
456,0.146214153405122
457,0.145446632716074
458,0.141992755076583
459,0.142760275765631
460,0.141225211361685
461,0.140457690672637
462,0.137387584890595
463,0.135084999797601
464,0.135084999797601
465,0.133933707251104
466,0.13163112215811
467,0.13163112215811
468,0.131247350300661
469,0.12779347266117
470,0.12740970080372
471,0.129712285896714
472,0.128177244518619
473,0.124339595021678
474,0.124339595021678
475,0.123188302475181
476,0.123188302475181
477,0.120885717382187
478,0.119350652978241
479,0.121269489239637
480,0.121269489239637
481,0.11973442483569
482,0.118199360431744
483,0.118199360431744
484,0.117431839742696
485,0.117048067885247
486,0.116280547196199
487,0.115513026507152
488,0.115513026507152
489,0.113210441414158
490,0.111675377010211
491,0.109372791917217
492,0.110524084463714
493,0.110524084463714
494,0.109756563774666
495,0.108605271228169
496,0.107837727513271
497,0.107837727513271
498,0.106686434966774
499,0.104000101042181
500,0.10438384987378
501,0.102081264780786
502,0.102081264780786
503,0.102081264780786
504,0.0997786796877914
505,0.099011158998744
506,0.099011158998744
507,0.099011158998744
508,0.0967085739057499
509,0.0955572813592529
510,0.0963248020483006
511,0.0963248020483006
512,0.0944059888127559
513,0.0967085739057499
514,0.0944059888127559
515,0.0944059888127559
516,0.0936384681237082
517,0.0913358830307141
518,0.0913358830307141
519,0.0913358830307141
520,0.0905683393158155
521,0.0905683393158155
522,0.0905683393158155
523,0.0886495260802708
524,0.0898008186267675
525,0.0894170467693185
526,0.0878820053912231
527,0.0878820053912231
528,0.0863469409872767
529,0.0851956484407797
530,0.0851956484407797
531,0.0863469409872767
532,0.084428127751732
533,0.083276835205235
534,0.0825092914903363
535,0.0817417708012886
536,0.0817417708012886
537,0.0821255426587379
538,0.0805904782547916
539,0.0790554138508452
540,0.0767528287578512
541,0.0767528287578512
542,0.0767528287578512
543,0.0775203724727498
544,0.0767528287578512
545,0.0775203724727498
546,0.0782878931617975
547,0.0782878931617975
548,0.0767528287578512
549,0.0759853080688035
550,0.0767528287578512
551,0.0779041213043482
552,0.0752177873797558
553,0.0752177873797558
554,0.0763690799262528
555,0.0729152022867618
556,0.0729152022867618
557,0.0721476585718631
558,0.0706126171937677
559,0.0721476585718631
560,0.0706126171937677
561,0.0698450734788693
562,0.0721476585718631
563,0.0729152022867618
564,0.0729152022867618
565,0.0706126171937677
566,0.0713801378828154
567,0.0694613246472707
568,0.0694613246472707
569,0.0725314304293124
570,0.0725314304293124
571,0.0702288453363184
572,0.0702288453363184
573,0.067542488385875
574,0.0671587395542766
575,0.0671587395542766
576,0.0663911958393778
577,0.066391195839378
578,0.0660074470077796
579,0.0660074470077796
580,0.0667749676968273
581,0.066391195839378
582,0.0667749676968273
583,0.0644723826038333
584,0.0633210900573363
585,0.0640886107463842
586,0.064088610746384
587,0.0625535693682885
588,0.0637048619147856
589,0.0629373181998869
590,0.0644723826038333
591,0.0656236751503303
592,0.0629373181998869
593,0.0621697975108392
594,0.0602509842752945
595,0.0621697975108392
596,0.0602509842752945
597,0.0590996917287975
598,0.0590996917287975
599,0.0579483991823005
600,0.0567971066358034
601,0.0606347331068929
602,0.0579483991823005
603,0.0548782703744078
604,0.0556458140893064
605,0.0556458140893064
606,0.0533432289963124
607,0.0533432289963124
608,0.0537269778279108
609,0.0541107496853601
610,0.0544945215428094
611,0.0544945215428094
612,0.0548782703744078
613,0.0544945215428094
614,0.0548782703744075
615,0.0548782703744075
616,0.0548782703744075
617,0.0548782703744075
618,0.0560295629209048
619,0.0560295629209048
620,0.0525756852814137
621,0.0533432289963124
622,0.0560295629209048
623,0.0560295629209048
624,0.0564133347783541
625,0.0564133347783541
626,0.0560295629209048
627,0.0556458140893064
628,0.0548782703744078
629,0.0537269778279108
630,0.0533432289963121
631,0.0510406439033183
632,0.0510406439033183
633,0.0533432289963124
634,0.052575685281414
635,0.052575685281414
636,0.0537269778279108
637,0.0548782703744078
638,0.0567971066358034
639,0.0571808554674018
640,0.0571808554674018
641,0.0579483991823002
642,0.0567971066358034
643,0.0575646273248511
644,0.0567971066358034
645,0.0556458140893064
646,0.0579483991823005
647,0.0575646273248511
648,0.0590996917287973
649,0.0594834405603959
650,0.0567971066358034
651,0.0567971066358037
652,0.0564133347783541
653,0.0556458140893064
654,0.0564133347783541
655,0.0564133347783541
656,0.0533432289963124
657,0.0525756852814137
658,0.051808164592366
659,0.0544945215428094
660,0.0529594571388631
661,0.0510406439033183
662,0.0514243927349167
663,0.049505579499372
664,0.0468192225489286
665,0.0491218076419227
666,0.0498893513568213
667,0.0498893513568213
668,0.048354286952875
669,0.048354286952875
670,0.0498893513568213
671,0.0521919364498153
672,0.0521919364498153
673,0.0537269778279108
674,0.0541107496853601
675,0.0521919364498153
676,0.0510406439033183
677,0.0521919364498153
678,0.0487380588103243
679,0.0487380588103243
680,0.0514243927349167
681,0.0502731001884197
682,0.0510406439033186
683,0.050656872045869
684,0.0475867662638273
685,0.0479705150954257
686,0.0452841811708334
687,0.0479705150954257
688,0.0479705150954257
689,0.0491218076419227
690,0.0464354737173302
691,0.0502731001884197
692,0.0479705150954257
693,0.0479705150954257
694,0.0468192225489286
695,0.0472029944063779
696,0.0464354737173302
697,0.0479705150954257
698,0.0475867662638273
699,0.0479705150954257
700,0.0475867662638273
701,0.0475867662638273
702,0.0468192225489286
703,0.0464354737173302
704,0.0464354737173302
705,0.0456679300024316
706,0.0460517018598809
707,0.0456679300024316
708,0.0472029944063779
709,0.0445166374559346
710,0.0410627598164435
711,0.0406790109848451
712,0.0402952391273958
713,0.0387601747234495
714,0.0406790109848451
715,0.0383764258918511
716,0.0360738407988568
717,0.03492254825236
718,0.0356900689414077
719,0.0326199631593662
720,0.0307011268979705
721,0.0287823136624256
722,0.0280147929733776
723,0.0276310211159288
724,0.0276310211159288
725,0.0241771434764375
726,0.0230258509299405
727,0.0195719732904495
728,0.0195719732904495
729,0.0168856163400061
730,0.0165018675084077
731,0.0122804461540179
732,0.00805904782547955
733,0.0049889420434375
734,0.00383764949694059
735,0.000383771857449272
736,-0.000383771857449272
737,-0.000383771857449272
738,-0.00230258509299444
739,-0.00307010578204205
740,-0.00268635695044306
741,-0.00307010578204205
742,-0.00422139832853896
743,-0.00345387763949132
744,-0.00115129254649753
745,-0.0011512925464969
746,-0.000383771857449272
747,0.00191881323554452
748,0.00345387763949068
749,0.00383764949694059
750,0.00690775527898202
751,0.0103616329184733
752,0.0103616329184733
753,0.0153505749619108
754,0.0161180956509585
755,0.018036908886503
756,0.0184206807439523
757,0.0195719732904492
758,0.0199557451478991
759,0.0214907865259943
760,0.021107037694396
761,0.0237933716189882
762,0.0287823136624256
763,0.0291660855198749
764,0.0287823136624256
765,0.0283985418049763
766,0.0287823136624256
767,0.0310848987554201
768,0.0322361913019169
769,0.0345387763949107
770,0.0391439465808983
771,0.0383764258918506
772,0.037992654034402
773,0.0402952391273958
774,0.0414465316738928
775,0.0418303035313419
776,0.0425978242203903
777,0.0468192225489286
778,0.0468192225489286
779,0.0460517018598809
780,0.0464354737173302
781,0.0479705150954254
782,0.0491218076419224
783,0.0502731001884199
784,0.0510406439033186
785,0.0502731001884192
786,0.0506568720458692
787,0.0521919364498153
788,0.0537269778279105
789,0.0552620422318569
790,0.0529594571388631
791,0.0548782703744075
792,0.0548782703744075
793,0.0533432289963121
794,0.0575646273248511
795,0.0571808554674018
796,0.0571808554674018
797,0.0579483991823005
798,0.0552620422318569
799,0.0541107496853605
800,0.0567971066358037
