Wavelength,Abs
200,87.1764472670278
201,87.3980710822285
202,87.8200198005197
203,88.1792230750267
204,88.4699244430172
205,88.7203305718803
206,88.9361979243485
207,89.1192534392415
208,89.2873421510301
209,89.435283243255
210,89.5619254233697
211,89.6730251541066
212,89.7691580817391
213,89.8549293764531
214,89.9303390382487
215,89.9965383596723
216,90.0552542795436
217,89.1083161600498
218,88.1596511017363
219,82.7117347717124
220,75.8224001734742
221,73.3166119460234
222,70.5483290179713
223,67.6430422768861
224,65.4187450770538
225,63.2266840685235
226,60.2644083463867
227,57.1933354786058
228,54.2782627508754
229,50.9268501480226
230,47.6911424460927
231,44.7674350242635
232,42.0935580850242
233,39.6050392457708
234,37.3485058546367
235,35.4333307035389
236,33.7737424977634
237,32.3346268146421
238,30.9922197054266
239,29.8553183157608
240,28.9031993798078
241,28.046637725214
242,27.3207477746476
243,26.668540547057
244,26.0957725051748
245,25.6110783430995
246,25.1643768350587
247,24.7591218586917
248,24.3947377677254
249,24.0481987112298
250,23.7315932609431
251,23.4178660420227
252,23.1185299799335
253,22.8479762315067
254,22.5808763607194
255,22.2970827480078
256,22.0063813800173
257,21.7099235492944
258,21.4226760589434
259,21.1227643505809
260,20.8222769959452
261,20.5252435189489
262,20.2253318105865
263,19.9386599665087
264,19.6629254016227
265,19.3739509724519
266,19.0959138224729
267,18.8167253799473
268,18.5202675492244
269,18.2324444126001
270,17.9463482147956
271,17.6527686154389
272,17.3534325533496
273,17.0633068316324
274,16.7576386605374
275,16.453121781989
276,16.1601178289055
277,15.853298365264
278,15.5418737314366
279,15.2333273289754
280,14.9121167085027
281,14.5920573805765
282,14.2719980526503
283,13.9571195411834
284,13.6497244312687
285,13.349237076633
286,13.0522035996367
287,12.7557457689138
288,12.466771339743
289,12.172616094113
290,11.8882468351283
291,11.6136635627887
292,11.3390802904492
293,11.0731317122084
294,10.819847351979
295,10.5728951007554
296,10.3270941420783
297,10.0899278774999
298,9.85794242938076
299,9.63228909026734
300,9.4158460915259
301,9.20113003160421
302,8.99792689714748
303,8.797601994057
304,8.60130661487926
305,8.40904075961426
306,8.20353504006454
307,8.00263449070081
308,7.829364962453
309,7.66300318948418
310,7.50009529415486
311,7.33776304509878
312,7.18118725877518
313,7.02173324108534
314,6.87148956376748
315,6.72297282526937
316,6.58251513459673
317,6.44320873647059
318,6.30275104579795
319,6.1680498178578
320,6.03104600482465
321,5.89289089924501
322,5.76624871913034
323,5.63960653901567
324,5.51526694399399
325,5.39150299524556
326,5.27004163159012
327,5.15721496203341
328,5.04611523129645
329,4.93846937819898
330,4.834277402741
331,4.73181236610276
332,4.63107426828427
333,4.53436569437852
334,4.43995970556577
335,4.34785630184601
336,4.25632854439949
337,4.17285983477846
338,4.08651289379118
339,4.00419547671665
340,3.92187805964211
341,3.83956064256757
342,3.75839451803953
343,3.68183356369748
344,3.61045342581466
345,3.54195151929809
346,3.47229832023502
347,3.4032207674452
348,3.33874838484137
349,3.27370035596428
350,3.21037926590695
351,3.14763382212286
352,3.08834225597826
353,3.03077762865341
354,2.97378864760181
355,2.91737531282346
356,2.86499150195784
357,2.81260769109223
358,2.75504306376738
359,2.70381054544826
360,2.65488061222213
361,2.60652632526926
362,2.55644509949664
363,2.50636387372402
364,2.4562826479514
365,2.40677706845203
366,2.3589984277724
367,2.31640060355201
368,2.27437842560487
369,2.22717543119849
370,2.18745583834434
371,2.14370672157746
372,2.1062897138163
373,2.06541882841566
374,2.02224535792202
375,1.98195011879462
376,1.94856263494621
377,1.91229691973155
378,1.87775814333664
379,1.84206807439524
380,1.80465106663408
381,1.77414181415191
382,1.7407543303035
383,1.70909378527483
384,1.67570630142642
385,1.64059187875826
386,1.61123391882258
387,1.58072466634041
388,1.55079106013149
389,1.52028180764932
390,1.4903482014404
391,1.46386847287096
392,1.43566180548179
393,1.40572819927286
394,1.38039976324993
395,1.35449568095375
396,1.32916724493081
397,1.30441445518113
398,1.28081295797794
399,1.25606016822825
400,1.23533690239131
401,1.21518928282761
402,1.19043649307792
403,1.16913758096773
404,1.14438479121804
405,1.1213589402881
406,1.1035139058174
407,1.08279063998045
408,1.06494560550975
409,1.04191975457981
410,1.02177213501611
411,1.00853227073139
412,0.988384651167694
413,0.972266555516736
414,0.952118935953038
415,0.934849547755582
416,0.919882744651121
417,0.903189002726915
418,0.888797845895702
419,0.872679750244743
420,0.858288593413531
421,0.838140973849833
422,0.824325463291868
423,0.813963830373395
424,0.798421380995685
425,0.78518151671097
426,0.768487774786763
427,0.754672264228799
428,0.743734985037077
429,0.733373352118604
430,0.722436072926882
431,0.706893623549172
432,0.699410221996941
433,0.68444341889248
434,0.675233078520504
435,0.660266275416043
436,0.651055935044066
437,0.640118655852345
438,0.628605730387375
439,0.619395390015398
440,0.607882464550428
441,0.596369539085458
442,0.584856613620488
443,0.577948858341505
444,0.568162871696281
445,0.560103823870802
446,0.553196068591819
447,0.543985728219843
448,0.534199741574619
449,0.522686816109648
450,0.516930353377163
451,0.509446951824933
452,0.499660965179708
453,0.49102627108098
454,0.484694162075247
455,0.474908175430022
456,0.46800042015104
457,0.458790079779064
458,0.449579739407087
459,0.442671984128105
460,0.435764228849123
461,0.431734704936384
462,0.423675657110904
463,0.417343548105171
464,0.408133207733195
465,0.404103683820455
466,0.398922867361218
467,0.389712526989242
468,0.379926540344018
469,0.375897016431278
470,0.372443138791787
471,0.365535383512805
472,0.358627628233823
473,0.352871165501338
474,0.350568580408343
475,0.339631301216622
476,0.335026131030634
477,0.33272354593764
478,0.325815790658657
479,0.322361913019166
480,0.316605450286681
481,0.31315157264719
482,0.309122048734451
483,0.303941232275214
484,0.302214293455469
485,0.293003953083492
486,0.290701367990498
487,0.288974429170753
488,0.286671844077759
489,0.27861279625228
490,0.276310211159286
491,0.272856333519794
492,0.265948578240812
493,0.26307034687457
494,0.261919054328073
495,0.259616469235079
496,0.252133067682848
497,0.249830482589854
498,0.245800958677114
499,0.241771434764375
500,0.237166264578387
501,0.234288033212144
502,0.23198544811915
503,0.229107216752908
504,0.227380277933162
505,0.225077692840168
506,0.222775107747174
507,0.217018645014689
508,0.217018645014689
509,0.214140413648446
510,0.210110889735707
511,0.208383950915961
512,0.20493007327647
513,0.200324903090482
514,0.199173610543985
515,0.195719732904494
516,0.192841501538251
517,0.189963270172009
518,0.187660685079015
519,0.183055514893027
520,0.181328576073281
521,0.179601637253536
522,0.176723405887293
523,0.172118235701305
524,0.170391296881559
525,0.168664358061814
526,0.16636177296882
527,0.16636177296882
528,0.164059187875826
529,0.16233224905608
530,0.158878371416589
531,0.155424493777098
532,0.15081932359111
533,0.149668031044613
534,0.149668031044613
535,0.147365445951619
536,0.142760275765631
537,0.143911568312128
538,0.142760275765631
539,0.140457690672637
540,0.135852520486649
541,0.133549935393655
542,0.133549935393655
543,0.132974289120406
544,0.130671704027412
545,0.130671704027412
546,0.12779347266117
547,0.124915241294927
548,0.122612656201933
549,0.122037009928684
550,0.11973442483569
551,0.118583132289193
552,0.116280547196199
553,0.116280547196199
554,0.116280547196199
555,0.111675377010211
556,0.111675377010211
557,0.111675377010211
558,0.109372791917217
559,0.108797145643969
560,0.108797145643969
561,0.106494560550975
562,0.106494560550975
563,0.105343268004478
564,0.104767621731229
565,0.103040682911484
566,0.103040682911484
567,0.102465036638235
568,0.102465036638235
569,0.0995868052719925
570,0.0995868052719925
571,0.097859866452247
572,0.0938303425395074
573,0.0926790499930103
574,0.0921034037197618
575,0.0903764649000163
576,0.0892251723535193
577,0.0874982335337737
578,0.0886495260802708
579,0.0846200021675312
580,0.0846200021675312
581,0.0817417708012886
582,0.0828930633477857
583,0.0817417708012886
584,0.0782878931617975
585,0.0788635394350461
586,0.0794391857082946
587,0.0788635394350461
588,0.077712246888549
589,0.075409661795555
590,0.076560954342052
591,0.0719557841560639
592,0.0725314304293124
593,0.0736827229758095
594,0.0731070767025609
595,0.0702288453363184
596,0.0702288453363184
597,0.0708044916095669
598,0.0696531990630699
599,0.0685019065165729
600,0.0679262602433243
601,0.0679262602433243
602,0.0656236751503305
603,0.0673506139700758
604,0.0621697975108392
605,0.0615941512375907
606,0.0598672124178454
607,0.0592915661445967
608,0.0638967363305848
609,0.0638967363305848
610,0.0633210900573363
611,0.0633210900573363
612,0.0621697975108392
613,0.0621697975108392
614,0.0621697975108392
615,0.0598672124178452
616,0.0587159198713482
617,0.0581402735980997
618,0.0581402735980997
619,0.0575646273248511
620,0.0558376885051056
621,0.0575646273248511
622,0.0564133347783541
623,0.0558376885051056
624,0.0558376885051056
625,0.0558376885051056
626,0.0558376885051056
627,0.0546863959586086
628,0.0541107496853601
629,0.0558376885051056
630,0.0541107496853601
631,0.0541107496853601
632,0.0512325183191175
633,0.048354286952875
634,0.0489299332261235
635,0.049505579499372
636,0.048354286952875
637,0.049505579499372
638,0.0472029944063779
639,0.0472029944063779
640,0.0460517018598809
641,0.0454760555866324
642,0.0437491167668869
643,0.0449004093133839
644,0.0454760555866324
645,0.0425978242203899
646,0.0449004093133839
647,0.0420221779471413
648,0.0420221779471413
649,0.0414465316738928
650,0.0379926540344018
651,0.0368413614879047
652,0.0356900689414077
653,0.0351144226681594
654,0.037417007761153
655,0.0339631301216622
656,0.0362657152146562
657,0.0374170077611532
658,0.0351144226681592
659,0.0362657152146562
660,0.0356900689414077
661,0.0356900689414077
662,0.0322361913019169
663,0.0345387763949107
664,0.0345387763949107
665,0.0328118375751652
666,0.0310848987554196
667,0.0316605450286681
668,0.0316605450286681
669,0.0310848987554196
670,0.0293579599356741
671,0.0282066673891771
672,0.0282066673891771
673,0.0287823136624256
674,0.0310848987554196
675,0.0310848987554196
676,0.0299336062089226
677,0.0299336062089226
678,0.0287823136624253
679,0.0259040822961828
680,0.024752789749686
681,0.0287823136624256
682,0.0282066673891771
683,0.0264797285694315
684,0.0230258509299405
685,0.0264797285694318
686,0.0241771434764375
687,0.0282066673891771
688,0.025904082296183
689,0.0230258509299403
690,0.024752789749686
691,0.0230258509299405
692,0.0241771434764375
693,0.0264797285694315
694,0.02705537484268
695,0.0241771434764375
696,0.0230258509299405
697,0.021298912110195
698,0.023601497203189
699,0.024752789749686
700,0.023601497203189
701,0.0230258509299405
702,0.0201476195636979
703,0.0201476195636979
704,0.0201476195636979
705,0.0195719732904493
706,0.0195719732904495
707,0.017845034470704
708,0.0207232658369464
709,0.0201476195636979
710,0.0212989121101951
711,0.022450204656692
712,0.0207232658369464
713,0.0184206807439523
714,0.0195719732904495
715,0.0172693881974554
716,0.0143911568312128
717,0.01554244937771
718,0.0201476195636979
719,0.0149668031044613
720,0.0166937419242069
721,0.0161180956509585
722,0.0155424493777097
723,0.0184206807439523
724,0.0178450344707038
725,0.0143911568312128
726,0.01554244937771
727,0.0149668031044613
728,0.0149668031044613
729,0.013815510557964
730,0.0155424493777097
731,0.0161180956509581
732,0.0132398642847159
733,0.0126642180114671
734,0.0115129254649702
735,0.00921034037197644
736,0.00748340155223047
737,0.00748340155223047
738,0.00690775527898202
739,0.00518081645923667
740,0.00460517018598823
741,0.00633210900573356
742,0.00863469409872799
743,0.00575646273248511
744,0.00690775527898202
745,0.00345387763949068
746,0.00633210900573356
747,0.00633210900573356
748,0.00518081645923667
749,0.00402952391273976
750,0.00690775527898202
751,0.0103616329184733
752,0.00863469409872799
753,0.00805904782547955
754,0.0063321090057342
755,0.00921034037197581
756,0.00805904782547891
757,0.00690775527898202
758,0.00863469409872799
759,0.00690775527898202
760,0.00921034037197581
761,0.0063321090057342
762,0.00690775527898264
763,0.0103616329184733
764,0.0103616329184733
765,0.00863469409872735
766,0.00921034037197644
767,0.00863469409872735
768,0.00921034037197581
769,0.0103616329184733
770,0.0115129254649702
771,0.0103616329184727
772,0.00921034037197581
773,0.00748340155223047
774,0.0120885717382187
775,0.0103616329184733
776,0.0103616329184733
777,0.0115129254649702
778,0.0103616329184733
779,0.0115129254649702
780,0.0109372791917218
781,0.0109372791917218
782,0.0120885717382187
783,0.0109372791917218
784,0.0120885717382187
785,0.0132398642847156
786,0.0109372791917211
787,0.0115129254649702
788,0.0166937419242069
789,0.0120885717382187
790,0.0109372791917218
791,0.0143911568312125
792,0.0143911568312131
793,0.0132398642847162
794,0.0120885717382187
795,0.0120885717382187
796,0.0132398642847156
797,0.0143911568312125
798,0.0115129254649702
799,0.013815510557964
800,0.0143911568312131
