Wavelength,Abs
200,11.8550512256956
201,11.5129254649702
202,10.8651315331499
203,10.2854557359886
204,9.74876151187934
205,9.2435359814088
206,8.79376434456006
207,8.38563113682686
208,7.99284850405558
209,7.62942383121997
210,7.29938661920692
211,6.99602103320496
212,6.72143776086542
213,6.47160727827556
214,6.23597607810112
215,6.0149279091737
216,5.81402735980997
217,5.63365820186738
218,5.46537759263717
219,5.30304534358109
220,5.15452860508297
221,5.02193808782001
222,4.89894165976063
223,4.78515559509908
224,4.67424773877791
225,4.57523657977917
226,4.47564977450718
227,4.38431389147646
228,4.29259425961415
229,4.19933956334789
230,4.10857932659043
231,4.01897040540531
232,3.93473415206938
233,3.84992227548604
234,3.76549414773431
235,3.6925789684734
236,3.62023941245989
237,3.55154563152752
238,3.48688135148203
239,3.42567097210189
240,3.37347903565208
241,3.32263028919041
242,3.27235718900199
243,3.2274567796886
244,3.1906154182007
245,3.15415780554439
246,3.12077032169598
247,3.08834225597826
248,3.05955994231584
249,3.03346398560386
250,3.00967059095902
251,2.98645286561328
252,2.96688089232283
253,2.94961150412537
254,2.93157459523887
255,2.91238637078002
256,2.89569262885581
257,2.8799583050623
258,2.86172949873415
259,2.84503575680994
260,2.82699884792344
261,2.80761874904879
262,2.7847847955605
263,2.7661722173749
264,2.7460245978112
265,2.72088805922991
266,2.69728656202673
267,2.67215000041959
268,2.64087322724837
269,2.6084451385048
270,2.57716836533359
271,2.54320523521192
272,2.50809081254376
273,2.47029003292516
274,2.43191363005916
275,2.39296155789406
276,2.35496890385966
277,2.31121978709277
278,2.26766254474169
279,2.2239134279748
280,2.17997243679211
281,2.13181002425504
282,2.0882528049298
283,2.04009039239272
284,1.99576562935259
285,1.9529759307164
286,1.90980246022276
287,1.86298321464798
288,1.81827470277625
289,1.77817133806465
290,1.73384657502452
291,1.69508640030107
292,1.65555868186272
293,1.61890919479061
294,1.58379477212245
295,1.55021541385824
296,1.51817109697212
297,1.48190538175747
298,1.45197177554855
299,1.42223006678127
300,1.39536656635439
301,1.36792741965426
302,1.33991264970674
303,1.31247350300661
304,1.28733694139947
305,1.26315979792303
306,1.23840700817335
307,1.21288669773461
308,1.19043649307792
309,1.17335897929627
310,1.15321135973257
311,1.13344751202632
312,1.11349176687842
313,1.09296039848312
314,1.07300465333523
315,1.05631091141102
316,1.03865775135611
317,1.02196400943191
318,1.00296768241471
319,0.985890191658901
320,0.968428906019795
321,0.951735164095589
322,0.93580896588628
323,0.921225911613417
324,0.906451005950606
325,0.892827369808441
326,0.874982335337737
327,0.860207406649075
328,0.848310732352507
329,0.835070868067791
330,0.820679711236578
331,0.807247949510212
332,0.798613255411485
333,0.783838349748673
334,0.768871546644212
335,0.758318016284089
336,0.74642134198752
337,0.735292165354148
338,0.723203593615929
339,0.713609504412355
340,0.700945286400888
341,0.689816109767516
342,0.681948959383687
343,0.674273660389806
344,0.661993214235788
345,0.650864060628267
346,0.641653720256291
347,0.632059608026866
348,0.627070665983428
349,0.617476576779854
350,0.607690590134629
351,0.596945185358706
352,0.587351073129281
353,0.579483922745452
354,0.573727460012967
355,0.568162871696281
356,0.561063242001499
357,0.55300419417602
358,0.546096438897038
359,0.53765361921411
360,0.530937738350927
361,0.520768002874104
362,0.513092703880223
363,0.506376846042891
364,0.499852839595507
365,0.493712628031424
366,0.485845454621744
367,0.478937699342761
368,0.472029944063779
369,0.466657253188744
370,0.459557600468111
371,0.451882324500081
372,0.446125861767596
373,0.438258688357916
374,0.434229164445177
375,0.427129534750396
376,0.42156494643371
377,0.41388967046568
378,0.410052020968739
379,0.405446850782751
380,0.398539095503769
381,0.393742050901982
382,0.387026170038799
383,0.380694061033065
384,0.375897016431278
385,0.37129184624529
386,0.365151611655355
387,0.360162692637769
388,0.356325043140829
389,0.350568580408343
390,0.345003992091658
391,0.341742011893817
392,0.335601777303882
393,0.330804732702095
394,0.327158957620954
395,0.32082684861522
396,0.316797324702481
397,0.312767800789741
398,0.306051942952409
399,0.302406167871268
400,0.300871126493172
401,0.295882184449735
402,0.292236432394445
403,0.287247490351007
404,0.284561133400564
405,0.280723506929474
406,0.275926439301836
407,0.271321269115848
408,0.268634935191256
409,0.264797285694315
410,0.261727179912274
411,0.258848948546031
412,0.25520317346489
413,0.2515574214096
414,0.249062961900806
415,0.245992833092914
416,0.244457791714818
417,0.240428267802079
418,0.23582309761609
419,0.23198544811915
420,0.228915342337108
421,0.227188403517363
422,0.224502046566919
423,0.221431940784878
424,0.219129355691884
425,0.217402416872138
426,0.215099831779144
427,0.212029702971252
428,0.208192076500162
429,0.20493007327647
430,0.201859967494428
431,0.20109242377953
432,0.198789838686536
433,0.196103504761943
434,0.196487253593542
435,0.194376565942198
436,0.191114562718506
437,0.187852559494814
438,0.186317518116719
439,0.184782453712772
440,0.182863640477227
441,0.182096096762329
442,0.177490926576341
443,0.175188341483347
444,0.174996467067547
445,0.172502007558754
446,0.170391296881559
447,0.169240004335062
448,0.168472483646015
449,0.166937419242068
450,0.164634834149074
451,0.160989082093784
452,0.157918953285891
453,0.156383911907796
454,0.155616368192898
455,0.155616368192898
456,0.153313783099903
457,0.152738136826655
458,0.151011198006909
459,0.150243677317862
460,0.147941092224867
461,0.145446632716074
462,0.143335922038879
463,0.14314404762308
464,0.141992755076583
465,0.141225211361685
466,0.139882044399388
467,0.138155105579643
468,0.137387584890595
469,0.135660646070849
470,0.134125581666903
471,0.134125581666903
472,0.132014870989708
473,0.129328537065116
474,0.128560993350217
475,0.127217826387921
476,0.127217826387921
477,0.127217826387921
478,0.124915241294927
479,0.125299013152376
480,0.124531469437478
481,0.122420781786134
482,0.120310071108939
483,0.119542550419891
484,0.118775006704993
485,0.115704900922951
486,0.117048067885247
487,0.117048067885247
488,0.112634795140909
489,0.112634795140909
490,0.112634795140909
491,0.112634795140909
492,0.112634795140909
493,0.111483502594412
494,0.111483502594412
495,0.110332210047915
496,0.108029624954921
497,0.108029624954921
498,0.107453978681672
499,0.107453978681672
500,0.107453978681672
501,0.105535142420277
502,0.106110788693525
503,0.105343268004478
504,0.104191975457981
505,0.103808203600531
506,0.103232557327283
507,0.101505618507537
508,0.101505618507537
509,0.10035432596104
510,0.0988192845829448
511,0.0984355127254955
512,0.0976679920364478
513,0.0965166994899507
514,0.0961329276325014
515,0.0961329276325014
516,0.0961329276325014
517,0.0944059888127559
518,0.0947897606702052
519,0.0947897606702052
520,0.0926790499930103
521,0.0926790499930103
522,0.0926790499930103
523,0.0919115293039626
524,0.091143985589064
525,0.091143985589064
526,0.0888414004960702
527,0.0880738798070222
528,0.0880738798070222
529,0.0880738798070222
530,0.0880738798070222
531,0.0857712947140282
532,0.0857712947140282
533,0.0873063591179748
534,0.0861550665714775
535,0.0850037740249805
536,0.0834687096210342
537,0.0798229575657439
538,0.0782878931617973
539,0.0775203724727498
540,0.0780960187459984
541,0.076560954342052
542,0.0759853080688035
543,0.0775203724727498
544,0.0775203724727498
545,0.0775203724727498
546,0.0744502436648572
547,0.0736827229758095
548,0.0744502436648572
549,0.074258369249058
550,0.0734908485600103
551,0.0740664948332588
552,0.0727233048451116
553,0.0711882634670162
554,0.0698450734788691
555,0.0696531990630699
556,0.0704207197521176
557,0.0698450734788691
558,0.0690775527898214
559,0.0690775527898214
560,0.0656236751503303
561,0.0667749676968273
562,0.0661993214235788
563,0.0644723826038333
564,0.0644723826038333
565,0.0638967363305848
566,0.064088610746384
567,0.0635129644731355
568,0.0635129644731355
569,0.0656236751503303
570,0.0644723826038333
571,0.0644723826038333
572,0.0610185049643422
573,0.0627454437840877
574,0.0635129644731355
575,0.0615941512375907
576,0.0610185049643422
577,0.0600590868336444
578,0.0600590868336444
579,0.0596753380020462
580,0.0590996917287975
581,0.0587159198713482
582,0.0592915661445967
583,0.0594834405603959
584,0.058524045455549
585,0.0562214603625549
586,0.0579483991823005
587,0.0579483991823005
588,0.0577565017406503
589,0.0575646273248511
590,0.0564133347783541
591,0.0569889810516026
592,0.0560295629209048
593,0.0581402735980997
594,0.0558376885051056
595,0.0560295629209048
596,0.0562214603625547
597,0.0564133347783541
598,0.0564133347783541
599,0.0564133347783541
600,0.0573727529090519
601,0.0556458140893064
602,0.0564133347783541
603,0.0552620422318571
604,0.0539188752695609
605,0.0533432289963121
606,0.0541107496853601
607,0.0548782703744075
608,0.0544945215428094
609,0.0539188752695609
610,0.0516162901765668
611,0.0504649976300698
612,0.0521919364498153
613,0.0529594571388631
614,0.0539188752695609
615,0.0523838108656145
616,0.0523838108656145
617,0.0500812257726205
618,0.0500812257726205
619,0.0523838108656145
620,0.0504649976300698
621,0.0504649976300698
622,0.0514243927349167
623,0.0512325183191175
624,0.0525756852814137
625,0.0525756852814137
626,0.0508487464616682
627,0.0520000390081652
628,0.0527675827230639
629,0.0521919364498153
630,0.0496974539151712
631,0.0485461613686742
632,0.0496974539151712
633,0.0498893513568213
634,0.048162412537076
635,0.048162412537076
636,0.0487380588103243
637,0.0502731001884197
638,0.0504649976300696
639,0.0485461613686742
640,0.0485461613686742
641,0.0485461613686742
642,0.0487380588103243
643,0.0458598274440817
644,0.0475867662638273
645,0.0470111199905787
646,0.0472029944063779
647,0.048354286952875
648,0.0472029944063779
649,0.0468192225489286
650,0.0466273481331294
651,0.0468192225489286
652,0.0466273481331294
653,0.0470111199905787
654,0.0473948688221771
655,0.0479705150954257
656,0.0491218076419227
657,0.0456679300024316
658,0.048354286952875
659,0.0464354737173302
660,0.0468192225489286
661,0.0477786406796265
662,0.0466273481331294
663,0.0475867662638273
664,0.0473948688221771
665,0.0468192225489286
666,0.0477786406796265
667,0.0472029944063779
668,0.0458598274440817
669,0.0458598274440817
670,0.0462435762756801
671,0.0468192225489286
672,0.0468192225489286
673,0.0450922837291831
674,0.0475867662638273
675,0.0475867662638273
676,0.0473948688221771
677,0.0472029944063779
678,0.0466273481331294
679,0.0462435762756799
680,0.0450922837291831
681,0.0433653449094376
682,0.0422140523629405
683,0.0443247630401354
684,0.0443247630401354
685,0.0439409911826861
686,0.0449004093133839
687,0.0449004093133839
688,0.0429815960778392
689,0.0437491167668869
690,0.0445166374559346
691,0.0429815960778392
692,0.0433653449094376
693,0.0437491167668869
694,0.0445166374559346
695,0.0443247630401354
696,0.0422140523629405
697,0.0420221779471413
698,0.0450922837291831
699,0.0431734704936384
700,0.0431734704936381
701,0.0412546572580936
702,0.0420221779471413
703,0.0424059498045907
704,0.0431734704936381
705,0.042789698636189
706,0.0439409911826863
707,0.0425978242203899
708,0.0410627598164435
709,0.0412546572580936
710,0.0424059498045909
711,0.0429815960778392
712,0.0424059498045909
713,0.0433653449094373
714,0.0433653449094376
715,0.0454760555866324
716,0.0435572423510877
717,0.0429815960778392
718,0.0433653449094376
719,0.0441328886243362
720,0.0441328886243364
721,0.0443247630401354
722,0.0433653449094376
723,0.0441328886243362
724,0.0431734704936384
725,0.0458598274440815
726,0.0462435762756801
727,0.0458598274440815
728,0.0466273481331294
729,0.0458598274440817
730,0.0466273481331297
731,0.0489299332261235
732,0.0500812257726205
733,0.0531513315546622
734,0.0525756852814137
735,0.055645814089306
736,0.0562214603625552
737,0.0550701678160581
738,0.0552620422318569
739,0.0564133347783543
740,0.0543026241011597
741,0.0508487464616684
742,0.0537269778279105
743,0.053535103412112
744,0.0525756852814137
745,0.0544945215428092
746,0.0531513315546627
747,0.0535351034121113
748,0.0521919364498153
749,0.0506568720458692
750,0.0506568720458692
751,0.0491218076419231
752,0.0487380588103241
753,0.0481624125370755
754,0.0481624125370755
755,0.0458598274440817
756,0.0443247630401349
757,0.0449004093133834
758,0.0435572423510879
759,0.0437491167668871
760,0.0454760555866324
761,0.0458598274440817
762,0.0477786406796269
763,0.0495055794993718
764,0.0468192225489286
765,0.0466273481331294
766,0.0449004093133841
767,0.0439409911826863
768,0.0406790109848451
769,0.0391439465808983
770,0.0402952391273958
771,0.0389520721650998
772,0.0420221779471411
773,0.0429815960778396
774,0.0439409911826863
775,0.0387601747234497
776,0.040487113543195
777,0.0379926540344013
778,0.0385683003076498
779,0.040487113543195
780,0.0397195928541473
781,0.036649487072106
782,0.0362657152146567
783,0.0351144226681592
784,0.0358819433572069
785,0.0360738407988568
786,0.0337712557058625
787,0.0358819433572069
788,0.037417007761153
789,0.0366494870721053
790,0.0351144226681592
791,0.0354981945256085
792,0.0345387763949107
793,0.0351144226681592
794,0.0326199631593655
795,0.0341550045374614
796,0.03492254825236
797,0.0339631301216622
798,0.0326199631593662
799,0.0343469019791115
800,0.033771255705863
