Wavelength,Abs
200,48.4609734108676
201,47.920633434703
202,46.9934591629155
203,46.1622259443446
204,45.3432731949536
205,44.5626968254028
206,43.8097515230196
207,43.0790645048256
208,42.2823700626497
209,41.4687900041337
210,40.7020291451408
211,39.9721096706617
212,39.2329798788365
213,38.4984552341714
214,37.7846538323174
215,37.0608746154541
216,36.3693315438409
217,35.7307479523926
218,35.1006071576012
219,34.4819792882749
220,33.9101706645233
221,33.3682956469807
222,32.867099617397
223,32.3981397791153
224,31.9330176133563
225,31.4686629452606
226,31.0204263728158
227,30.59598317199
228,30.173075058594
229,29.7486318577682
230,29.3241886799682
231,28.9012805665722
232,28.4983281752983
233,28.0853979229633
234,27.6678624774165
235,27.2879359370724
236,26.9202898428824
237,26.5557138775003
238,26.1926729534963
239,25.8442150837652
240,25.519550585653
241,25.2048639486019
242,24.9024577807306
243,24.6077268888274
244,24.3321841983571
245,24.0765972530348
246,23.8378959470783
247,23.620685404622
248,23.4134527692784
249,23.219268077752
250,23.0342937496234
251,22.8608323239339
252,22.6965812616423
253,22.5361678488476
254,22.381894647617
255,22.2260863589566
256,22.0679755312549
257,21.9037244689633
258,21.7402409043349
259,21.5698496304792
260,21.4017609186906
261,21.2244618665301
262,21.0325797600967
263,20.8437677824711
264,20.6541882841566
265,20.4507932522582
266,20.2397229674177
267,20.0347928941412
268,19.8122096608098
269,19.5788810457284
270,19.3493900801439
271,19.1091536867576
272,18.8689173163972
273,18.6271458816328
274,18.3723264569995
275,18.1221122025522
276,17.8765031182909
277,17.6170785464974
278,17.353048804518
279,17.0859489337307
280,16.8142438697316
281,16.5448414368771
282,16.2746714372819
283,16.0075715664946
284,15.7481469947012
285,15.497165196539
286,15.2446483569987
287,14.9913639967693
288,14.7442198711299
289,14.4917030315896
290,14.2530017256331
291,14.0204406312407
292,13.7917171863453
293,13.5699014967288
294,13.3565285807436
295,13.150063466089
296,12.9428308077195
297,12.7425059046291
298,12.5506237981956
299,12.3610443229069
300,12.1760699717525
301,11.994165749406
302,11.8153316328415
303,11.6403351887998
304,11.4645711780174
305,11.2903422316389
306,11.1214859991612
307,10.9564674161806
308,10.795286459671
309,10.6387106503215
310,10.4844374490909
311,10.3332343766682
312,10.1774261110337
313,10.0208503247101
314,9.87348487875847
315,9.7276544972108
316,9.58719678351231
317,9.44520405146158
318,9.2993736699139
319,9.15661337112242
320,9.01078298957475
321,8.86572015174198
322,8.73140267263342
323,8.59248004636473
324,8.45355742009604
325,8.31693735589449
326,8.17647966522186
327,8.04676737932514
328,7.92089271989952
329,7.79578560418879
330,7.66760835967017
331,7.54173370024455
332,7.41969669031586
333,7.30303239428807
334,7.18099536133353
335,7.06279600090179
336,6.94689922556304
337,6.83407255600633
338,6.72431601525751
339,6.6114893457008
340,6.4978951324292
341,6.39044115374752
342,6.28605730387375
343,6.17937086890697
344,6.0726844339402
345,5.97290573122655
346,5.8784997424138
347,5.78869892378703
348,5.69736306378217
349,5.60142201056547
350,5.51315625634264
351,5.42642552047207
352,5.33892728693829
353,5.25373166152337
354,5.16776846936769
355,5.08794553482779
356,5.00965761864015
357,4.9313697485042
358,4.85384937603145
359,4.77556148286965
360,4.70034371851575
361,4.62359086673204
362,4.55067566444528
363,4.47699294146947
364,4.40561280358666
365,4.32885997482881
366,4.25671231625694
367,4.18686721975222
368,4.12239486017424
369,4.05485234876251
370,3.98654231666174
371,3.92590758355485
372,3.866040371137
373,3.80156798853317
374,3.73786312661838
375,3.67722839351149
376,3.61812872480855
377,3.56286668257669
378,3.50530203222599
379,3.44927246930508
380,3.39247536266928
381,3.33874838484137
382,3.28271879889461
383,3.23052688547065
384,3.17679990764274
385,3.12153786541088
386,3.06934592896106
387,3.01945657760424
388,2.96879970555837
389,2.91737531282346
390,2.86902102587058
391,2.8222017802958
392,2.77768514283987
393,2.72933085588699
394,2.68020904824507
395,2.63492489010009
396,2.5927108147113
397,2.5512642830374
398,2.50828268695956
399,2.46606863459662
400,2.42538964663763
401,2.38240805055979
402,2.33865891076705
403,2.29797992280806
404,2.25806843251226
405,2.21815696524231
406,2.18054808306536
407,2.14293920088841
408,2.10533029568561
409,2.06925645488675
410,2.03471767849184
411,2.00248151021577
412,1.97178036029195
413,1.93800910458609
414,1.90807552140302
415,1.87507180941205
416,1.84360313879918
417,1.81366953259026
418,1.78757355285243
419,1.7576399466435
420,1.73077646924247
421,1.70084286303355
422,1.67474690632157
423,1.65018599098768
424,1.62485755496475
425,1.60183170403481
426,1.57727078870092
427,1.55424493777098
428,1.53045154312614
429,1.5081932359111
430,1.48670244938511
431,1.46444411914421
432,1.44525591771121
433,1.42453262884842
434,1.40304184232242
435,1.38308609717452
436,1.36389789574152
437,1.34394215059362
438,1.32705653425362
439,1.30940337419871
440,1.29021519579156
441,1.27409710014061
442,1.25797900448965
443,1.24109336512379
444,1.22267268437984
445,1.20655458872888
446,1.19120401376697
447,1.17662098251996
448,1.16127040755805
449,1.14361724750314
450,1.13056928066008
451,1.11905635519511
452,1.10677590904109
453,1.09065779036428
454,1.07684227980631
455,1.06149172787026
456,1.0453736322193
457,1.03386070675433
458,1.02234778128936
459,1.00929981444629
460,0.998554386644517
461,0.987041461179547
462,0.976296079429475
463,0.962480568871511
464,0.950967643406541
465,0.937919653537624
466,0.927174271787553
467,0.915661346322582
468,0.90491594154666
469,0.894938080485636
470,0.884960196398761
471,0.874982335337737
472,0.865771994965761
473,0.855026590189839
474,0.844281208439767
475,0.836605909445886
476,0.826628048384862
477,0.817417708012886
478,0.810509952733904
479,0.799764547957982
480,0.792089271989952
481,0.785949037400017
482,0.777506217717089
483,0.769063421060011
484,0.761388122066131
485,0.752945325409053
486,0.746037570130071
487,0.739129814851089
488,0.731454515857208
489,0.72301171920013
490,0.714568899517202
491,0.709196208642166
492,0.701520909648285
493,0.697683283177196
494,0.68847294280522
495,0.683100251930184
496,0.678495058718345
497,0.670052262061267
498,0.663144506782285
499,0.657771815907249
500,0.652399102006363
501,0.646258867416428
502,0.639351112137446
503,0.63397842126241
504,0.627838209698327
505,0.621697975108392
506,0.61479021982941
507,0.607882464550428
508,0.602509750649541
509,0.597904603489404
510,0.593299433303416
511,0.590229327521374
512,0.584856613620488
513,0.577181314626607
514,0.57257616746647
515,0.567970997280482
516,0.563365827094494
517,0.557225592504559
518,0.550317837225577
519,0.546480187728636
520,0.541875017542648
521,0.536502326667613
522,0.531897156481625
523,0.52575692189169
524,0.522686816109648
525,0.51808164592366
526,0.512708955048624
527,0.509638849266583
528,0.504266135365696
529,0.498125900775762
530,0.494288251278821
531,0.492753209900726
532,0.485845454621744
533,0.481240284435756
534,0.477402634938815
535,0.472797464752827
536,0.468959815255887
537,0.465889709473845
538,0.460517018598809
539,0.457446912816767
540,0.454376807034726
541,0.450539157537785
542,0.446701508040845
543,0.442863858543904
544,0.44056127345091
545,0.434421061886827
546,0.431350933078934
547,0.426745762892946
548,0.423675657110904
549,0.422140592706958
550,0.41753542252097
551,0.41369777302403
552,0.40986014655294
553,0.408325082148994
554,0.404487455677904
555,0.400649806180964
556,0.399882285491916
557,0.396812156684024
558,0.392974507187083
559,0.389904401405041
560,0.386834295623
561,0.385299254244904
562,0.383764189840958
563,0.379926540344018
564,0.376856411536125
565,0.369948679282994
566,0.369181158593946
567,0.366878573500952
568,0.366111029786053
569,0.361505859600065
570,0.357668210103125
571,0.356900689414077
572,0.355365648035982
573,0.35152797551319
574,0.348457869731149
575,0.346922805327202
576,0.342317635141214
577,0.340015073074071
578,0.336177423577131
579,0.334642359173184
580,0.334642359173184
581,0.330804709676244
582,0.330037188987196
583,0.326967083205154
584,0.323896954397262
585,0.319291784211274
586,0.316989222144131
587,0.315454157740184
588,0.313919116362089
589,0.310848987554196
590,0.308546402461202
591,0.304708775990113
592,0.303173711586166
593,0.302406190897119
594,0.299336062089226
595,0.298568518374327
596,0.298568518374327
597,0.295498412592286
598,0.293195827499292
599,0.29012572171725
600,0.287055615935208
601,0.284753030842214
602,0.283985510153166
603,0.282450422723369
604,0.27861279625228
605,0.27861279625228
606,0.276310211159286
607,0.274775146755339
608,0.270937497258399
609,0.270937497258399
610,0.270169976569351
611,0.267867414502208
612,0.267099870787309
613,0.266332350098262
614,0.262494700601321
615,0.257122009726285
616,0.256354489037238
617,0.254051903944244
618,0.255586945322339
619,0.254819424633291
620,0.253284360229345
621,0.248679190043357
622,0.247144125639411
623,0.246376604950363
624,0.245609084261315
625,0.240236370360428
626,0.238701305956482
627,0.239468849671381
628,0.23563120017444
629,0.234096135770494
630,0.2317935506775
631,0.2317935506775
632,0.231793573703351
633,0.229490965584506
634,0.227188403517363
635,0.225653339113416
636,0.22411827470947
637,0.221815689616476
638,0.22028062521253
639,0.218745583834434
640,0.217978040119536
641,0.21644299874144
642,0.214907934337494
643,0.2126053492445
644,0.211837828555452
645,0.211070307866405
646,0.209535243462458
647,0.208000202084363
648,0.205697616991369
649,0.204162552587422
650,0.204162552587422
651,0.203395031898375
652,0.201859967494428
653,0.199557382401434
654,0.198789838686536
655,0.198789838686536
656,0.199557382401434
657,0.196487253593542
658,0.1934171478115
659,0.1934171478115
660,0.192649627122452
661,0.191882106433404
662,0.190347042029458
663,0.190347042029458
664,0.190347042029458
665,0.188811977625512
666,0.186509392532518
667,0.184206807439524
668,0.184206807439524
669,0.183439286750476
670,0.182671743035577
671,0.180369157942583
672,0.180369157942583
673,0.179601637253536
674,0.179601637253535
675,0.178066572849589
676,0.176531531471494
677,0.174228923352649
678,0.1742289463785
679,0.171926338259655
680,0.172693881974553
681,0.172693881974553
682,0.169623753166661
683,0.170391296881559
684,0.168856232477613
685,0.168856255503464
686,0.167321168073667
687,0.167321191099518
688,0.167321168073667
689,0.168088711788565
690,0.166553647384619
691,0.164251062291625
692,0.164251062291625
693,0.164251062291625
694,0.163483541602577
695,0.163483541602577
696,0.164251085317476
697,0.164251062291625
698,0.16271602091353
699,0.16271602091353
700,0.161180956509583
701,0.158878371416589
702,0.156575786323595
703,0.155808265634547
704,0.155808242608696
705,0.155808242608696
706,0.155040721919649
707,0.155808242608696
708,0.152738159852505
709,0.151203095448559
710,0.15043555173366
711,0.151970616137607
712,0.151970616137607
713,0.151203072422709
714,0.148132966640667
715,0.145062860858625
716,0.145062860858625
717,0.145062860858625
718,0.143527796454679
719,0.141992755076583
720,0.143527796454679
721,0.142760275765631
722,0.141225234387535
723,0.141225211361684
724,0.140457690672637
725,0.138155105579643
726,0.137387584890595
727,0.137387584890595
728,0.137387584890595
729,0.134317479108554
730,0.135852520486649
731,0.134317479108553
732,0.133549935393654
733,0.134317456082702
734,0.134317456082702
735,0.132014870989709
736,0.132014870989709
737,0.128177244518619
738,0.125874659425625
739,0.12740970080372
740,0.122037009928684
741,0.121269489239637
742,0.122037009928684
743,0.125874659425625
744,0.12357205130678
745,0.124339595021678
746,0.121269466213786
747,0.122037009928684
748,0.123572074332631
749,0.125107138736577
750,0.126642180114673
751,0.123572074332631
752,0.122037009928684
753,0.122037009928684
754,0.122037009928684
755,0.123572074332631
756,0.12357205130678
757,0.122804530617732
758,0.12357205130678
759,0.122037009928684
760,0.122037009928684
761,0.12357205130678
762,0.125874636399774
763,0.12740970080372
764,0.125874636399774
765,0.126642180114673
766,0.125874636399774
767,0.124339595021679
768,0.123572074332631
769,0.122037009928684
770,0.123572074332631
771,0.124339595021678
772,0.125874659425625
773,0.128177244518619
774,0.128177221492768
775,0.126642180114673
776,0.125874636399773
777,0.126642180114673
778,0.128177244518619
779,0.129712285896715
780,0.128944765207666
781,0.130479829611613
782,0.131247350300661
783,0.129712285896714
784,0.128944765207666
785,0.132014894015559
786,0.132782414704607
787,0.134317456082702
788,0.132782414704607
789,0.134317479108553
790,0.135852520486648
791,0.134317456082702
792,0.134317479108553
793,0.135852520486648
794,0.135084999797601
795,0.135852520486649
796,0.134317456082702
797,0.133549935393655
798,0.136620041175696
799,0.135084999797601
800,0.136620041175696
