Wavelength,Abs
200,41.6341923589718
201,41.0758154739208
202,39.9279768050633
203,38.8227359604261
204,37.701377020138
205,36.5903797127684
206,35.6486224097338
207,34.7275883725362
208,33.8031004576991
209,32.9292694149078
210,32.1107004143485
211,31.3519986262069
212,30.6174739815418
213,29.9128829430856
214,29.2324690481059
215,28.5635680785911
216,27.9418701034827
217,27.3512570271298
218,26.7767620464278
219,26.2287467942952
220,25.7290858291155
221,25.2559045925052
222,24.8103543770108
223,24.3832248422604
224,23.9687595255215
225,23.5727148895265
226,23.189334471543
227,22.816315686478
228,22.4502046566919
229,22.0656729461619
230,21.6903515760039
231,21.3276944238573
232,20.9719450269898
233,20.6081365822967
234,20.2477820152431
235,19.913907176759
236,19.5869400935539
237,19.2737885209067
238,18.9744524588174
239,18.7004448327511
240,18.4379501321498
241,18.1800606017345
242,17.9382891669701
243,17.7045767800312
244,17.4892850738363
245,17.2832037080133
246,17.0909378527483
247,16.9216978484132
248,16.7536091366247
249,16.5924281801151
250,16.448516611803
251,16.3057563360373
252,16.1606934751787
253,16.031748709971
254,15.9062578224029
255,15.7738591795557
256,15.649519584534
257,15.5251799895124
258,15.3927813466652
259,15.260382703818
260,15.1268327684244
261,14.9909802479377
262,14.8505225572651
263,14.713518744232
264,14.5765149311988
265,14.4314520703402
266,14.2806327467491
267,14.1367211784369
268,13.9812966846598
269,13.8201157281503
270,13.6577834790942
271,13.4954512300381
272,13.337724151168
273,13.1776944872049
274,13.0130596530559
275,12.8438196487208
276,12.6849412773042
277,12.5145499804226
278,12.3430073909946
279,12.17031350902
280,11.9930144568595
281,11.8145641121524
282,11.6372650599919
283,11.4576634227384
284,11.2849695407638
285,11.1214859991612
286,10.9453382395472
287,10.7749469426656
288,10.5976478905051
289,10.4168949607051
290,10.2488062489165
291,10.0864739998604
292,9.92068787316485
293,9.76296079429475
294,9.60983888561065
295,9.45901956201954
296,9.30935153097493
297,9.16198608502331
298,9.02728485708316
299,8.89028104405001
300,8.75673110865636
301,8.62893763599519
302,8.50574933352
303,8.37680456831234
304,8.25246497329066
305,8.13733571864096
306,8.01760129380527
307,7.90132074660907
308,7.78849407705236
309,7.68487774786763
310,7.58241271122939
311,7.47879638204466
312,7.37748263795292
313,7.27501760131469
314,7.17485514976945
315,7.07929786841019
316,6.98374058705094
317,6.88703201314519
318,6.78686956159995
319,6.6901609876942
320,6.60036016906743
321,6.50595418025468
322,6.41500206908141
323,6.32289866536165
324,6.23079526164189
325,6.14559961320111
326,6.05810137966733
327,5.97635960886605
328,5.89461783806476
329,5.81057348217048
330,5.72768041882269
331,5.64824123311439
332,5.56419687722011
333,5.48590898405831
334,5.41107496853601
335,5.33163578282771
336,5.2579530598519
337,5.19232938470157
338,5.12094924681876
339,5.04956910893594
340,4.97473509341364
341,4.90105237043783
342,4.82621835491552
343,4.7582920946722
344,4.69036583442887
345,4.62128828163905
346,4.5625723617677
347,4.49925127171037
348,4.43708147419953
349,4.37951684687468
350,4.31849834191033
351,4.25747983694599
352,4.19876391707464
353,4.14119928974979
354,4.08593724751793
355,4.03067520528608
356,3.97656445560072
357,3.92130241336886
358,3.87179683386949
359,3.81653479163763
360,3.76127274940577
361,3.7106158773599
362,3.66226159040703
363,3.60699954817517
364,3.5574939686758
365,3.50453451153694
366,3.45042376185158
367,3.4020694748987
368,3.35832035813182
369,3.31111736372544
370,3.26276307677256
371,3.21440878981969
372,3.17411355069229
373,3.12575926373942
374,3.07855626933304
375,3.03595844511265
376,2.99681449853175
377,2.95306538176486
378,2.91622402027696
379,2.86902102587058
380,2.82987707928968
381,2.79303571780178
382,2.75043789358139
383,2.71244523954699
384,2.67675517060558
385,2.63645993147818
386,2.60192115508327
387,2.56738237868836
388,2.52938972465396
389,2.49485094825905
390,2.45800958677114
391,2.42692468801572
392,2.39353720416731
393,2.3589984277724
394,2.32561094392399
395,2.29337475262207
396,2.26344114641315
397,2.23235624765773
398,2.20127134890231
399,2.1667325725074
400,2.14025284393797
401,2.11031923772904
402,2.08038563152012
403,2.05390590295069
404,2.02051841910228
405,1.99288739798635
406,1.96871025450991
407,1.94223052594048
408,1.91920467501054
409,1.8938762389876
410,1.87085038805766
411,1.84206807439524
412,1.8178909309188
413,1.79486507998886
414,1.77068793651242
415,1.74535950048949
416,1.72233364955955
417,1.7004590911761
418,1.67743324024616
419,1.65786126695571
420,1.63368412347928
421,1.61526344273532
422,1.59338888435188
423,1.57151432596844
424,1.55079106013149
425,1.53237037938754
426,1.5093445284576
427,1.48977255516715
428,1.47250316696969
429,1.45638507131873
430,1.43796439057478
431,1.42184629492382
432,1.40227432163337
433,1.38385364088942
434,1.36543296014547
435,1.35046615704101
436,1.33434806139005
437,1.31707867319259
438,1.30211187008813
439,1.28369118934418
440,1.26757309369322
441,1.25375758313526
442,1.24109336512379
443,1.22497526947283
444,1.20885717382187
445,1.19389037071741
446,1.18007486015945
447,1.16856193469448
448,1.15704900922951
449,1.14323349867154
450,1.12941798811358
451,1.11099730736963
452,1.09948438190466
453,1.08682016389319
454,1.07760982352121
455,1.06379431296325
456,1.04997880240528
457,1.03846587694031
458,1.03040682911484
459,1.02119648874286
460,1.0050783930919
461,0.998170637812919
462,0.986657712347949
463,0.975144786882978
464,0.961329276325014
465,0.953270228499535
466,0.944059888127559
467,0.930244377569595
468,0.918731452104624
469,0.909521111732648
470,0.898008186267678
471,0.891100430988696
472,0.883041383163217
473,0.876133627884234
474,0.869225872605252
475,0.857712947140282
476,0.848502606768306
477,0.841594851489324
478,0.834687096210342
479,0.82777934093136
480,0.820871585652377
481,0.812812537826898
482,0.803602197454922
483,0.79669444217594
484,0.788635394350461
485,0.779425053978484
486,0.774819883792496
487,0.76560954342052
488,0.756399203048544
489,0.751794032862556
490,0.747188862676568
491,0.740281107397586
492,0.732222059572107
493,0.725314304293124
494,0.717255256467645
495,0.71149879373516
496,0.703439745909681
497,0.69998586827019
498,0.691926820444711
499,0.687321650258723
500,0.680413894979741
501,0.674657432247255
502,0.66890096951477
503,0.665447091875279
504,0.659690629142794
505,0.650480288770818
506,0.648177703677824
507,0.640118655852345
508,0.633210900573362
509,0.630908315480369
510,0.625151852747883
511,0.621697975108392
512,0.61479021982941
513,0.609033757096925
514,0.605579879457434
515,0.600974709271446
516,0.594066953992464
517,0.589461783806476
518,0.582554028527494
519,0.577948858341505
520,0.576797565795008
521,0.569889810516026
522,0.566435932876535
523,0.559528177597553
524,0.557225592504559
525,0.552620422318571
526,0.548015252132583
527,0.543410081946595
528,0.534199741574619
529,0.529594571388631
530,0.524989401202642
531,0.523838108656145
532,0.521535523563151
533,0.516930353377163
534,0.510022598098181
535,0.504266135365696
536,0.499660965179708
537,0.493904502447223
538,0.488148039714738
539,0.486996747168241
540,0.482391576982253
541,0.477786406796265
542,0.47548382170327
543,0.473181236610276
544,0.470878651517282
545,0.466273481331294
546,0.461668311145306
547,0.461668311145306
548,0.455911848412821
549,0.451306678226833
550,0.451306678226833
551,0.449004093133839
552,0.444398922947851
553,0.444398922947851
554,0.438642460215366
555,0.435188582575875
556,0.435188582575875
557,0.431734704936384
558,0.424826949657401
559,0.42137307201791
560,0.419070486924916
561,0.417919194378419
562,0.413314024192431
563,0.40986014655294
564,0.40986014655294
565,0.405254976366952
566,0.402952391273958
567,0.39834722108797
568,0.39834722108797
569,0.396044635994976
570,0.391439465808988
571,0.390288173262491
572,0.387985588169497
573,0.383380417983509
574,0.377623955251024
575,0.375321370158029
576,0.375321370158029
577,0.373018785065035
578,0.373018785065035
579,0.370716199972041
580,0.364959737239556
581,0.361505859600065
582,0.363808444693059
583,0.360354567053568
584,0.354598104321083
585,0.352295519228089
586,0.351144226681592
587,0.348841641588598
588,0.349992934135095
589,0.34423647140261
590,0.341933886309616
591,0.341933886309616
592,0.340782593763119
593,0.336177423577131
594,0.333874838484137
595,0.331572253391143
596,0.33272354593764
597,0.328118375751652
598,0.328118375751652
599,0.325815790658657
600,0.320059327926172
601,0.318908035379675
602,0.318908035379675
603,0.317756742833178
604,0.31315157264719
605,0.309697695007699
606,0.309697695007699
607,0.309697695007699
608,0.308546402461202
609,0.306243817368208
610,0.306243817368208
611,0.302789939728717
612,0.299336062089226
613,0.299336062089226
614,0.299336062089226
615,0.297033476996232
616,0.294730891903238
617,0.29012572171725
618,0.29012572171725
619,0.29012572171725
620,0.287823136624256
621,0.285520551531262
622,0.284369258984765
623,0.283217966438268
624,0.283217966438268
625,0.283217966438268
626,0.280915381345274
627,0.27861279625228
628,0.277461503705782
629,0.277461503705782
630,0.276310211159286
631,0.274007626066291
632,0.2705537484268
633,0.269402455880303
634,0.269402455880303
635,0.269402455880303
636,0.265948578240812
637,0.263645993147818
638,0.262494700601321
639,0.261343408054824
640,0.261343408054824
641,0.25904082296183
642,0.257889530415333
643,0.254435652775842
644,0.254435652775842
645,0.256738237868836
646,0.254435652775842
647,0.252133067682848
648,0.249830482589854
649,0.246376604950363
650,0.246376604950363
651,0.245225312403866
652,0.245225312403866
653,0.24752789749686
654,0.242922727310872
655,0.239468849671381
656,0.238317557124884
657,0.240620142217878
658,0.234863679485393
659,0.233712386938896
660,0.237166264578387
661,0.23601497203189
662,0.234863679485393
663,0.231409801845902
664,0.230258509299405
665,0.226804631659913
666,0.226804631659913
667,0.225653339113416
668,0.223350754020422
669,0.223350754020422
670,0.223350754020422
671,0.222199461473925
672,0.221048168927428
673,0.222199461473926
674,0.222199461473926
675,0.218745583834434
676,0.216442998741441
677,0.215291706194943
678,0.214140413648446
679,0.211837828555452
680,0.215291706194943
681,0.216442998741441
682,0.211837828555452
683,0.211837828555452
684,0.210686536008955
685,0.207232658369464
686,0.207232658369464
687,0.206081365822967
688,0.208383950915961
689,0.208383950915961
690,0.206081365822967
691,0.206081365822967
692,0.201476195636979
693,0.200324903090482
694,0.201476195636979
695,0.196871025450991
696,0.198022317997488
697,0.198022317997488
698,0.196871025450991
699,0.194568440357997
700,0.194568440357997
701,0.1934171478115
702,0.1934171478115
703,0.195719732904494
704,0.1934171478115
705,0.189963270172009
706,0.188811977625512
707,0.188811977625512
708,0.186509392532518
709,0.185358099986021
710,0.185358099986021
711,0.18190422234653
712,0.183055514893027
713,0.180752929800033
714,0.180752929800033
715,0.177299052160542
716,0.178450344707039
717,0.179601637253536
718,0.178450344707038
719,0.174996467067547
720,0.174996467067547
721,0.174996467067547
722,0.171542589428056
723,0.171542589428056
724,0.170391296881559
725,0.170391296881559
726,0.166937419242069
727,0.164634834149074
728,0.164634834149074
729,0.163483541602577
730,0.16233224905608
731,0.16233224905608
732,0.16233224905608
733,0.161180956509583
734,0.161180956509583
735,0.158878371416589
736,0.157727078870092
737,0.155424493777098
738,0.15081932359111
739,0.153121908684104
740,0.15081932359111
741,0.149668031044613
742,0.151970616137607
743,0.154273201230601
744,0.151970616137607
745,0.15081932359111
746,0.149668031044613
747,0.153121908684104
748,0.153121908684104
749,0.154273201230601
750,0.153121908684104
751,0.149668031044613
752,0.151970616137607
753,0.153121908684104
754,0.15081932359111
755,0.15081932359111
756,0.149668031044613
757,0.148516738498116
758,0.149668031044613
759,0.145062860858625
760,0.147365445951619
761,0.148516738498116
762,0.149668031044613
763,0.148516738498116
764,0.148516738498116
765,0.149668031044613
766,0.145062860858625
767,0.148516738498116
768,0.148516738498116
769,0.15081932359111
770,0.147365445951619
771,0.142760275765631
772,0.142760275765631
773,0.143911568312128
774,0.143911568312128
775,0.145062860858625
776,0.143911568312127
777,0.141608983219134
778,0.141608983219134
779,0.13930639812614
780,0.14276027576563
781,0.146214153405122
782,0.145062860858625
783,0.143911568312128
784,0.142760275765631
785,0.143911568312128
786,0.146214153405122
787,0.145062860858625
788,0.143911568312128
789,0.143911568312127
790,0.145062860858625
791,0.145062860858625
792,0.142760275765631
793,0.142760275765631
794,0.145062860858625
795,0.14276027576563
796,0.143911568312128
797,0.143911568312128
798,0.143911568312128
799,0.142760275765631
800,0.145062860858625
