Wavelength,Abs
200,17.0372108749204
201,16.7432475037062
202,16.1860219112016
203,15.6736967280105
204,15.1843973957492
205,14.7150538086359
206,14.2963670705426
207,13.905311376591
208,13.5203958942036
209,13.152366051182
210,12.8062107665438
211,12.4754060338417
212,12.1622544611946
213,11.8617671065588
214,11.5701063204376
215,11.2884234184033
216,11.0194047343805
217,10.7626664965116
218,10.5097658851139
219,10.2557140041955
220,10.0208503247101
221,9.80210474087565
222,9.60139606592772
223,9.41181656761316
224,9.22991234526663
225,9.06067234093157
226,8.89757257118644
227,8.74291559809839
228,8.59324756705378
229,8.43552048818369
230,8.28431739273513
231,8.13349806914402
232,7.99304037847138
233,7.84759376878116
234,7.70291465675413
235,7.5778075410434
236,7.45231665347523
237,7.33334974932859
238,7.21438286820779
239,7.10616136883707
240,7.00446385288789
241,6.90775527898214
242,6.81450058271588
243,6.72968870613255
244,6.64948197670935
245,6.57464796118705
246,6.50633795211213
247,6.44301686205479
248,6.381614585233
249,6.32635254300114
250,6.27032298008024
251,6.21851481548787
252,6.1667066508955
253,6.11604977884963
254,6.0707655976788
255,6.02394637512987
256,5.9744407956305
257,5.92531896496273
258,5.87427834408526
259,5.82323770018194
260,5.77258082813607
261,5.71731878590422
262,5.65937038672192
263,5.60410834449006
264,5.55230017989769
265,5.48974663355525
266,5.42872812859091
267,5.36655833108007
268,5.29901581966835
269,5.23300839568642
270,5.17083859817558
271,5.10060975283926
272,5.03229972073849
273,4.96168710354472
274,4.8922258019233
275,4.81854307894749
276,4.74639539734978
277,4.67232892554237
278,4.6005650158021
279,4.52649852096884
280,4.44398922947851
281,4.36608510817416
282,4.28856473570141
283,4.21181190694356
284,4.1377454121103
285,4.06291139658799
286,3.98692608851919
287,3.91170830113943
288,3.83879312187852
289,3.76472662704527
290,3.6925789684734
291,3.61927999432919
292,3.54905114899287
293,3.47997359620305
294,3.41511746476762
295,3.35218012354188
296,3.28617269955995
297,3.22515419459561
298,3.16451943846287
299,3.10925739623101
300,3.05169276890616
301,2.9952794341278
302,2.94500633393938
303,2.89473323375096
304,2.84254129730115
305,2.79495453103732
306,2.74736778779935
307,2.69632714389603
308,2.65219425527169
309,2.61305030869079
310,2.57198754887435
311,2.532459830436
312,2.49062954993051
313,2.44995053894566
314,2.40965529981827
315,2.37243016647292
316,2.33443751243851
317,2.30028250790105
318,2.26228985386665
319,2.22775107747174
320,2.19244478038778
321,2.16020858908586
322,2.12336722759796
323,2.08767715865655
324,2.05582471618623
325,2.02320477605272
326,1.9898172922043
327,1.95834862159144
328,1.92879878723996
329,1.90155151495563
330,1.87238545246161
331,1.84245184625269
332,1.81558834582581
333,1.78910861725637
334,1.76262888868694
335,1.73384657502452
336,1.70698307459764
337,1.67973582533916
338,1.65555868186272
339,1.63061401769723
340,1.60375051727035
341,1.57957337379392
342,1.55961762864602
343,1.53544048516958
344,1.51318217795454
345,1.48977255516715
346,1.46674670423721
347,1.44372085330727
348,1.42414888001682
349,1.40112302908688
350,1.37848095001439
351,1.35929272555553
352,1.34202333735808
353,1.31938125828559
354,1.29789047175959
355,1.28253989679768
356,1.26220040281819
357,1.24147713698124
358,1.22420774878378
359,1.20386823177844
360,1.18736638729588
361,1.17009699909842
362,1.15090877463957
363,1.13325563761052
364,1.11368366432007
365,1.09756556866911
366,1.07799359537866
367,1.0618754997277
368,1.04614115290834
369,1.02772047216439
370,1.01083485582439
371,0.996251824577374
372,0.980901249615464
373,0.965550674653553
374,0.950200122717493
375,0.936768360991127
376,0.922569101601565
377,0.907986047328702
378,0.893786787939139
379,0.879971277381175
380,0.865388223108312
381,0.853107776954294
382,0.840443558942827
383,0.828163112788809
384,0.812812537826898
385,0.800915840504479
386,0.790170458754407
387,0.777122468885491
388,0.763306958327526
389,0.751026512173508
390,0.739897335540136
391,0.725698076150574
392,0.716103963921148
393,0.705358559145226
394,0.694229405537705
395,0.683100251930184
396,0.671203554607764
397,0.661609442378339
398,0.649328996224321
399,0.639351135163297
400,0.633594672430812
401,0.622081746965842
402,0.612103862878967
403,0.601358481128895
404,0.594066953992464
405,0.585240385477937
406,0.575262501391062
407,0.56835474611208
408,0.559528177597553
409,0.549550316536529
410,0.539572432449654
411,0.535351034121116
412,0.527675758153086
413,0.519232938470157
414,0.511557662502128
415,0.504266135365696
416,0.495823315682768
417,0.491985689211678
418,0.480472763746708
419,0.477018886107217
420,0.469343587113336
421,0.462819603691803
422,0.457830661648366
423,0.449771613822887
424,0.445166443636899
425,0.439793752761863
426,0.433653518171928
427,0.426745762892946
428,0.422908136421857
429,0.416767901831922
430,0.410627667241988
431,0.405254976366952
432,0.399882285491916
433,0.393742050901982
434,0.387601816312047
435,0.383764189840958
436,0.376856434561976
437,0.372635013207586
438,0.36726232233255
439,0.36342467283561
440,0.35958704636452
441,0.353446811774586
442,0.349225413446047
443,0.343852699545161
444,0.340015073074071
445,0.336177423577131
446,0.331956025248592
447,0.327734603894202
448,0.323129433708214
449,0.319291807237125
450,0.313919093336238
451,0.310848987554196
452,0.306243817368208
453,0.30163864718222
454,0.300871126493172
455,0.296649705138783
456,0.293579599356741
457,0.290509493574699
458,0.285520551531262
459,0.283217966438268
460,0.279380316941327
461,0.277077731848333
462,0.272472561662345
463,0.269402455880303
464,0.265564806383363
465,0.260575887365777
466,0.257505758557884
467,0.254435652775842
468,0.252516839540297
469,0.249830482589854
470,0.247911669354309
471,0.247144125639411
472,0.244841540546417
473,0.241771434764375
474,0.238701328982333
475,0.23601497203189
476,0.23601497203189
477,0.230642281156854
478,0.226804631659913
479,0.226420859802464
480,0.223350754020422
481,0.221815689616476
482,0.220280648238381
483,0.217978063145387
484,0.214140413648446
485,0.212989121101949
486,0.211454056698003
487,0.209151471605009
488,0.207616430226913
489,0.205313845133919
490,0.205313845133919
491,0.200708674947931
492,0.198789838686536
493,0.198789838686536
494,0.196487253593542
495,0.193800919668949
496,0.190730790861056
497,0.187660685079015
498,0.187276913221565
499,0.183823035582074
500,0.183439286750476
501,0.18190422234653
502,0.179601637253536
503,0.178066572849589
504,0.174996467067547
505,0.173461402663601
506,0.173461402663601
507,0.169623776192512
508,0.168856232477613
509,0.168472483646015
510,0.166937419242068
511,0.166169898553021
512,0.160413435820535
513,0.161180956509583
514,0.157343307012643
515,0.157343307012643
516,0.157343307012643
517,0.154273201230601
518,0.152738136826655
519,0.152738136826655
520,0.151203095448559
521,0.150435551733661
522,0.148900510355565
523,0.146214153405122
524,0.146597925262571
525,0.145446632716074
526,0.141608983219134
527,0.140841462530086
528,0.13930639812614
529,0.138155105579643
530,0.138155105579643
531,0.137003813033146
532,0.135852520486649
533,0.133166163536205
534,0.132398642847158
535,0.13163112215811
536,0.130863578443211
537,0.130479829611613
538,0.12740970080372
539,0.12740970080372
540,0.124339595021678
541,0.123572074332631
542,0.122804530617732
543,0.122804530617732
544,0.122037009928684
545,0.122037009928684
546,0.120501945524738
547,0.120501945524738
548,0.120501945524738
549,0.11973442483569
550,0.118199360431744
551,0.117048067885247
552,0.113594190245756
553,0.113594190245756
554,0.113977962103205
555,0.110524084463714
556,0.109756563774666
557,0.109756563774666
558,0.10822149937072
559,0.10822149937072
560,0.107453978681673
561,0.107453978681673
562,0.107453978681673
563,0.105918914277726
564,0.105918914277726
565,0.105151393588678
566,0.105151393588678
567,0.102465036638235
568,0.101697515949187
569,0.102465036638235
570,0.102465036638235
571,0.100162451545241
572,0.0993949308561933
573,0.0974760945947979
574,0.0963248020483006
575,0.0970923457631992
576,0.097859866452247
577,0.0955572813592529
578,0.0951735095018036
579,0.0944059888127559
580,0.0928709244088095
581,0.0917196318623125
582,0.0905683393158155
583,0.0905683393158155
584,0.0871144616763244
585,0.0886495260802708
586,0.0871144616763244
587,0.085579420298229
588,0.0859631691298274
589,0.0851956484407797
590,0.0851956484407795
591,0.0848118765833304
592,0.0836605840368334
593,0.0805904782547916
594,0.0802067063973425
595,0.0821255426587379
596,0.0817417708012886
597,0.0790554138508452
598,0.0790554138508452
599,0.0771366006153005
600,0.0759853080688035
601,0.0790554138508452
602,0.0756015362113542
603,0.0732989511183601
604,0.0748340155223065
605,0.0748340155223065
606,0.0725314304293124
607,0.0725314304293124
608,0.0713801378828154
609,0.0725314304293124
610,0.0729152022867618
611,0.0729152022867618
612,0.0725314304293124
613,0.0713801378828154
614,0.0702288453363184
615,0.0702288453363184
616,0.0702288453363184
617,0.0702288453363184
618,0.0698450734788691
619,0.0706126171937677
620,0.0679262602433243
621,0.0679262602433243
622,0.0690775527898214
623,0.0690775527898214
624,0.0686937809323721
625,0.0679262602433243
626,0.0683100321007737
627,0.0679262602433243
628,0.066391195839378
629,0.0660074470077796
630,0.0656236751503303
631,0.064088610746384
632,0.0648561544612824
633,0.0656236751503305
634,0.064088610746384
635,0.064088610746384
636,0.0644723826038333
637,0.064088610746384
638,0.065239903292881
639,0.064088610746384
640,0.064088610746384
641,0.064088610746384
642,0.065239903292881
643,0.0637048619147856
644,0.0637048619147856
645,0.0633210900573363
646,0.0648561544612824
647,0.0637048619147856
648,0.0644723826038333
649,0.0656236751503305
650,0.0629373181998869
651,0.0614022768217915
652,0.0610185049643422
653,0.0594834405603959
654,0.0579483991823005
655,0.0587159198713482
656,0.0587159198713482
657,0.0571808554674018
658,0.0564133347783541
659,0.0575646273248511
660,0.0575646273248511
661,0.0564133347783541
662,0.0560295629209048
663,0.0556458140893064
664,0.0529594571388631
665,0.0537269778279108
666,0.0552620422318571
667,0.0567971066358037
668,0.0560295629209048
669,0.0560295629209048
670,0.0552620422318571
671,0.0575646273248511
672,0.0567971066358034
673,0.0575646273248511
674,0.0579483991823005
675,0.0552620422318571
676,0.0541107496853601
677,0.0552620422318571
678,0.0525756852814137
679,0.051808164592366
680,0.050656872045869
681,0.0510406439033183
682,0.052575685281414
683,0.0521919364498153
684,0.0498893513568213
685,0.0502731001884197
686,0.048354286952875
687,0.049505579499372
688,0.0502731001884197
689,0.050656872045869
690,0.0479705150954257
691,0.051808164592366
692,0.0502731001884197
693,0.0487380588103243
694,0.048354286952875
695,0.0479705150954257
696,0.0487380588103243
697,0.0479705150954257
698,0.048354286952875
699,0.049505579499372
700,0.048354286952875
701,0.048354286952875
702,0.048354286952875
703,0.0472029944063779
704,0.0464354737173302
705,0.0441328886243362
706,0.0452841811708334
707,0.0472029944063779
708,0.0464354737173302
709,0.0429815960778392
710,0.0402952391273958
711,0.0414465316738928
712,0.0410627598164435
713,0.0402952391273958
714,0.0391439465808986
715,0.0383764258918511
716,0.0368413614879045
717,0.03492254825236
718,0.0356900689414077
719,0.03492254825236
720,0.0314686706128689
721,0.0295498343514733
722,0.0280147929733776
723,0.0268635004268808
724,0.0268635004268808
725,0.0257122078803838
726,0.0253284360229345
727,0.0218745583834436
728,0.0226420790724912
729,0.0191882014330002
730,0.0188044526014015
731,0.0153505749619105
732,0.0118966973224195
733,0.00882656851452716
734,0.00614023458993439
735,0.000383771857449272
736,-0.000383771857449272
737,-0.000383771857449272
738,-0.00153506440394617
739,-0.00230258509299444
740,-0.00191881323554452
741,-0.00230258509299444
742,-0.00191881323554452
743,-0.0011512925464969
744,-0.000383771857449909
745,-0.0011512925464969
746,-0.0011512925464969
747,0.00268635695044306
748,0.00345387763949068
749,0.00537269087503584
750,0.00614023458993439
751,0.00882656851452654
752,0.00882656851452654
753,0.0145830312470123
754,0.0145830312470123
755,0.0141992824154139
756,0.0145830312470123
757,0.018036908886503
758,0.0161180956509585
759,0.0184206807439523
760,0.021107037694396
761,0.0207232658369467
762,0.0218745583834436
763,0.0237933716189882
764,0.0257122078803836
765,0.0245609153338866
766,0.024944664165485
767,0.0249446641654856
768,0.0260959567119824
769,0.0283985418049763
770,0.0322361913019162
771,0.0330037119909639
772,0.0349225482523607
773,0.03492254825236
774,0.0337712557058625
775,0.0356900689414077
776,0.037992654034402
777,0.0414465316738928
778,0.0406790109848451
779,0.039143946580899
780,0.037992654034402
781,0.0425978242203896
782,0.0437491167668866
783,0.0449004093133841
784,0.0441328886243364
785,0.0433653449094373
786,0.0437491167668866
787,0.0445166374559348
788,0.0452841811708334
789,0.047586766263827
790,0.0452841811708334
791,0.0472029944063779
792,0.0464354737173302
793,0.0464354737173302
794,0.0506568720458686
795,0.0495055794993722
796,0.0472029944063779
797,0.0495055794993718
798,0.0468192225489286
799,0.0456679300024316
800,0.0460517018598809
