Wavelength,Abs
200,86.7253324632168
201,85.9762247873047
202,85.4589106620701
203,82.398775073481
204,79.2626541768231
205,77.5249699753275
206,74.3013508451358
207,71.9642269757469
208,69.3515604158877
209,67.1633370568543
210,65.5315717466106
211,64.0671276274663
212,62.4860191892685
213,60.4044822652018
214,58.7151523506591
215,57.0565235399885
216,55.4316660080496
217,53.8989118568046
218,52.3078255575457
219,50.6960159924499
220,49.106464757595
221,47.571408021257
222,46.1829492101816
223,44.9080845893519
224,43.7115078847099
225,42.6377356876598
226,41.6330410664253
227,40.7281251248787
228,39.9068697673689
229,39.0457029425891
230,38.2129346826401
231,37.4745723884781
232,36.756933360153
233,36.0147334395199
234,35.2702309337937
235,34.5794554058955
236,33.9646651860661
237,33.3874838484137
238,32.7957194795142
239,32.2300510673267
240,31.728087517054
241,31.2483822970222
242,30.7894003428273
243,30.3496065900655
244,29.9443516136985
245,29.5736354137265
246,29.2128970748155
247,28.8721144810523
248,28.5635680785911
249,28.2519515703479
250,27.9464752736687
251,27.6647923716344
252,27.3723640648242
253,27.0914486834789
254,26.8189760987907
255,26.5127322814225
256,26.1965106029933
257,25.8787538601601
258,25.543343957272
259,25.2017938428198
260,24.8748267596147
261,24.5417194418196
262,24.2001693273674
263,23.8678295532872
264,23.5470026816462
265,23.2161979719699
266,22.8884633450499
267,22.5730091873097
268,22.2590900939734
269,21.9367281809543
270,21.6166688530281
271,21.28739918473
272,20.9627346866178
273,20.6403727735986
274,20.3095680408965
275,19.9872061278774
276,19.6709844494481
277,19.3363420902749
278,19.0001646666978
279,18.6609171143128
280,18.3116917238926
281,17.9486507998886
282,17.5886800046925
283,17.2371520061534
284,16.8956018917013
285,16.5532842335342
286,16.2194093950501
287,15.8901397267519
288,15.5693128781367
289,15.2400432098385
290,14.9199838819124
291,14.6114374794512
292,14.2998209481821
293,14.0012524298077
294,13.7180344633695
295,13.4455618786813
296,13.1700192112369
297,12.9067569669207
298,12.6511700215983
299,12.409398586834
300,12.1676271520696
301,11.9289258461131
302,11.6986673368137
303,11.4730139977003
304,11.2550359345549
305,11.0370578714095
306,10.798356565453
307,10.5665629917497
308,10.3647030242552
309,10.1728209408477
310,9.98707906900422
311,9.80901249615463
312,9.62403816802606
313,9.43906381687164
314,9.26483489351899
315,9.09060594714049
316,8.92098217094798
317,8.75519604425241
318,8.59248004636473
319,8.43513671632624
320,8.27242071843856
321,8.11123976192897
322,7.95850160207647
323,7.80192581575288
324,7.65225778470826
325,7.50796246756453
326,7.35829443651992
327,7.21783674584729
328,7.08198422536064
329,6.95457450153107
330,6.8240946949453
331,6.69745251483063
332,6.57541550490195
333,6.45414601566231
334,6.33901676101261
335,6.22004985686596
336,6.10185049643422
337,5.98979134756656
338,5.88694256209673
339,5.77872106272601
340,5.67356966913733
341,5.56611569045566
342,5.46019677617793
343,5.36195316089408
344,5.26447704327344
345,5.17160611886463
346,5.07950271514486
347,4.9897018965181
348,4.89990107789133
349,4.8131703650466
350,4.72874226032072
351,4.64891930275498
352,4.56909634518923
353,4.48697082555635
354,4.40638034730156
355,4.33193008061085
356,4.26131748644293
357,4.18763476346712
358,4.11318449677641
359,4.0402693175155
360,3.96888917963269
361,3.90057914753191
362,3.83150159474209
363,3.76088897754832
364,3.69027638338041
365,3.62119883059059
366,3.55519138358281
367,3.49071900097897
368,3.42701413906419
369,3.36254175646035
370,3.30267454404251
371,3.24434239602861
372,3.18601024801471
373,3.12691055628591
374,3.07164851405406
375,3.01408388672921
376,2.9595893651864
377,2.90432732295454
378,2.85060034512663
379,2.79994347308076
380,2.75005412172394
381,2.70169983477106
382,2.65027544203615
383,2.60038609067933
384,2.54972921863346
385,2.50060741099153
386,2.45225312403866
387,2.41464424186171
388,2.36705747559788
389,2.32023825304895
390,2.27495407187812
391,2.23197247580028
392,2.19052594412639
393,2.14600930667045
394,2.1060978394005
395,2.06772141350865
396,2.03318263711374
397,1.99403869053284
398,1.95566226464099
399,1.91882090315309
400,1.88274708538008
401,1.85051089407817
402,1.81443705327931
403,1.7775956917914
404,1.74459197980044
405,1.71235578849852
406,1.68088711788565
407,1.64634834149074
408,1.61411215018883
409,1.58724864976195
410,1.55731504355302
411,1.52891650174805
412,1.50205300132117
413,1.47442198020524
414,1.4490935441823
415,1.41992748168828
416,1.39459904566534
417,1.3715731947354
418,1.34624475871247
419,1.32398642847158
420,1.30019305685259
421,1.27716720592265
422,1.25260629058876
423,1.22958043965882
424,1.20808965313283
425,1.18583132289193
426,1.16587557774403
427,1.14515231190709
428,1.12749917487803
429,1.10447332394809
430,1.0845175788002
431,1.06609689805624
432,1.0453736322193
433,1.02925553656834
434,1.00929979142044
435,0.989344069298392
436,0.973225973647434
437,0.962480568871511
438,0.946362473220553
439,0.9279417924766
440,0.911823696825642
441,0.895705601174684
442,0.884192675709713
443,0.869609644462702
444,0.858096718997731
445,0.839676038253779
446,0.825860527695815
447,0.81204501713785
448,0.798229506579886
449,0.784413996021922
450,0.773668591245999
451,0.760620601377083
452,0.748340155223065
453,0.736827229758095
454,0.723779239889178
455,0.709963729331214
456,0.698450803866244
457,0.687705422116172
458,0.68079766683719
459,0.665447091875279
460,0.657004272192351
461,0.647793931820375
462,0.63397842126241
463,0.623233039512339
464,0.61479021982941
465,0.602509773675392
466,0.590996848210422
467,0.584856613620488
468,0.575646273248511
469,0.564133347783541
470,0.552620422318571
471,0.545712667039589
472,0.539572432449654
473,0.531129635792577
474,0.524221880513595
475,0.51424399642672
476,0.505033656054744
477,0.500428485868756
478,0.491218145496779
479,0.482007805124803
480,0.475100049845821
481,0.468959838281738
482,0.465889709473845
483,0.456679369101869
484,0.452074198915881
485,0.445166443636899
486,0.439026232072815
487,0.433653518171928
488,0.426745762892946
489,0.419838007613964
490,0.415232837427976
491,0.408325082148994
492,0.403719911963006
493,0.397579700398922
494,0.391439465808988
495,0.386834295623
496,0.382996646126059
497,0.375321370158029
498,0.369948679282994
499,0.366878550475101
500,0.359970795196119
501,0.355365625010131
502,0.347690349042101
503,0.344620243260059
504,0.342317658167065
505,0.335409902888083
506,0.331572253391143
507,0.326967083205154
508,0.32466449811216
509,0.320059327926172
510,0.313919093336238
511,0.311616508243244
512,0.303941232275214
513,0.298568541400178
514,0.298568541400178
515,0.296265956307184
516,0.292428306810244
517,0.287823136624256
518,0.281682902034321
519,0.279380316941327
520,0.272472561662345
521,0.270169976569351
522,0.267867391476357
523,0.266332350098262
524,0.264029765005268
525,0.257889530415333
526,0.254051880918393
527,0.251749295825399
528,0.245609084261315
529,0.241003914075327
530,0.239468849671381
531,0.237166264578387
532,0.234096158796345
533,0.227188403517363
534,0.225653339113416
535,0.223350754020422
536,0.221048168927428
537,0.219513104523482
538,0.215675478052393
539,0.213372892959399
540,0.20876772277341
541,0.20493007327647
542,0.20493007327647
543,0.201859967494428
544,0.201859967494428
545,0.198022317997488
546,0.19725479730844
547,0.196487253593542
548,0.191114562718506
549,0.188811977625512
550,0.184974328128571
551,0.184206807439524
552,0.178834116564488
553,0.177299052160542
554,0.172693881974553
555,0.171926361285506
556,0.170391296881559
557,0.170391296881559
558,0.167321191099518
559,0.165018606006524
560,0.165018606006524
561,0.160413435820535
562,0.160413435820535
563,0.158110850727541
564,0.156575786323595
565,0.153505680541553
566,0.153505680541553
567,0.148900510355565
568,0.144295340169577
569,0.147365445951619
570,0.146597925262571
571,0.141992755076583
572,0.13892262626869
573,0.136620041175696
574,0.135852520486649
575,0.133549935393655
576,0.133549935393655
577,0.134317456082702
578,0.133549935393655
579,0.130479829611613
580,0.12740970080372
581,0.125107115710726
582,0.123572074332631
583,0.122804530617732
584,0.122037009928684
585,0.121269489239637
586,0.117431839742696
587,0.118966904146643
588,0.118199360431744
589,0.116664319053649
590,0.112826669556708
591,0.112059148867661
592,0.115129254649702
593,0.112826669556708
594,0.111291605152762
595,0.108989020059768
596,0.108989020059768
597,0.108989020059768
598,0.105151393588678
599,0.10438384987378
600,0.103616329184732
601,0.102848808495684
602,0.102081264780786
603,0.0982436383096963
604,0.0951735095018036
605,0.0936384681237082
606,0.0936384681237082
607,0.0936384681237082
608,0.0898008186267675
609,0.0898008186267675
610,0.0890332979377201
611,0.0905683393158155
612,0.0905683393158155
613,0.0905683393158155
614,0.0874982335337737
615,0.0874982335337737
616,0.086730712844726
617,0.086730712844726
618,0.086730712844726
619,0.084428127751732
620,0.0836605840368334
621,0.0851956484407797
622,0.0874982335337737
623,0.0851956484407797
624,0.0828930633477859
625,0.0805904782547916
626,0.0805904782547916
627,0.0805904782547916
628,0.0851956484407797
629,0.084428127751732
630,0.0813579989438393
631,0.0813579989438393
632,0.0782878931617975
633,0.0775203724727498
634,0.0759853080688035
635,0.0759853080688035
636,0.0744502436648572
637,0.0721476585718631
638,0.0713801378828154
639,0.0706126171937677
640,0.0683100321007737
641,0.0690775527898214
642,0.067542488385875
643,0.065239903292881
644,0.0637048619147856
645,0.0637048619147856
646,0.0629373181998869
647,0.0590996917287975
648,0.0598672124178454
649,0.0598672124178454
650,0.0590996917287973
651,0.0583321480138989
652,0.0575646273248511
653,0.0552620422318571
654,0.0537269778279108
655,0.0529594571388631
656,0.0560295629209048
657,0.0544945215428094
658,0.0529594571388631
659,0.0506568720458688
660,0.0529594571388631
661,0.0521919364498153
662,0.0498893513568213
663,0.0468192225489286
664,0.0460517018598809
665,0.0460517018598809
666,0.0437491167668869
667,0.0475867662638273
668,0.0437491167668869
669,0.0429815960778392
670,0.0452841811708332
671,0.0445166374559346
672,0.0445166374559346
673,0.0422140523629405
674,0.0437491167668869
675,0.0429815960778392
676,0.0429815960778392
677,0.0429815960778392
678,0.0399114672699465
679,0.0399114672699465
680,0.0414465316738928
681,0.0414465316738928
682,0.0399114672699465
683,0.0445166374559346
684,0.0399114672699465
685,0.0391439465808988
686,0.036073840798857
687,0.0353062970839584
688,0.0368413614879047
689,0.036073840798857
690,0.036073840798857
691,0.0353062970839584
692,0.0353062970839584
693,0.033771255705863
694,0.033771255705863
695,0.033771255705863
696,0.0345387763949107
697,0.0345387763949107
698,0.0345387763949107
699,0.0330037119909643
700,0.0307011268979705
701,0.0299336062089226
702,0.0299336062089226
703,0.0291660855198749
704,0.0307011268979703
705,0.0299336062089226
706,0.0283985418049763
707,0.0268635004268808
708,0.0276310211159283
709,0.0268635004268808
710,0.0253284360229345
711,0.0230258509299402
712,0.0237933716189882
713,0.0207232658369464
714,0.0207232658369464
715,0.0230258509299405
716,0.0214907865259943
717,0.0214907865259943
718,0.0199557451478987
719,0.0168856163400061
720,0.0168856163400058
721,0.014583031247012
722,0.0130479898689167
723,0.0130479898689167
724,0.0107454047759226
725,0.0115129254649702
726,0.0107454047759226
727,0.00921034037197614
728,0.0122804461540179
729,0.0107454047759223
730,0.0084428196829285
731,0.00537269087503584
732,-0.000767520689047945
733,-0.00230258509299444
734,-0.00460517018598823
735,-0.00767527596802964
736,-0.0122804461540179
737,-0.0153505749619108
738,-0.013815510557964
739,-0.0153505749619102
740,-0.0176531600549046
741,-0.0191882014330005
742,-0.0176531600549046
743,-0.0199557451478991
744,-0.0168856163400061
745,-0.0122804461540185
746,-0.0130479898689164
747,-0.0138155105579647
748,-0.013815510557964
749,-0.0115129254649702
750,-0.00767527596803028
751,-0.00690775527898202
752,-0.00690775527898202
753,-0.00921034037197581
754,-0.00921034037197581
755,-0.00460517018598823
756,-0.00460517018598823
757,-0.00383764949693995
758,-0.00230258509299379
759,-0.00153506440394617
760,-0.000767520689048265
761,0
762,-0.00307010578204141
763,0.00230258509299444
764,0.00383764949693995
765,0.00230258509299379
766,0.00383764949694059
767,0.00537269087503584
768,0.00537269087503584
769,0.00844281968292818
770,0.0107454047759226
771,0.00844281968292818
772,0.0107454047759226
773,0.00997786106102343
774,0.0130479898689164
775,0.013815510557964
776,0.0168856163400061
777,0.0207232658369467
778,0.0176531600549046
779,0.0184206807439529
780,0.0199557451478991
781,0.0184206807439523
782,0.0191882014329999
783,0.0168856163400061
784,0.0214907865259943
785,0.0214907865259943
786,0.0230258509299405
787,0.0222583302408922
788,0.0222583302408922
789,0.0230258509299405
790,0.0230258509299405
791,0.0230258509299405
792,0.0245609153338866
793,0.0199557451478984
794,0.0222583302408922
795,0.0237933716189882
796,0.0253284360229343
797,0.0230258509299405
798,0.0245609153338866
799,0.0230258509299405
800,0.0237933716189882
