Wavelength,Abs
200,85.182408576495
201,79.9100643598119
202,71.3726544812632
203,66.2471000642584
204,63.0724108672929
205,59.5857213902267
206,56.3361981777388
207,53.9058196120836
208,51.4029096159991
209,49.3173431680197
210,47.4499466576016
211,45.7489119201522
212,44.3092205907577
213,42.9512710321644
214,41.6520373934425
215,40.4794459348353
216,39.3339098510708
217,38.2718424769273
218,37.2494946956379
219,36.2110288186976
220,35.2462456647331
221,34.3545695874712
222,33.5204581375341
223,32.7450626074683
224,32.0220508882682
225,31.342788285835
226,30.6923079970641
227,30.078093423508
228,29.5024471502595
229,28.9463728503014
230,28.3954793668026
231,27.8618552715012
232,27.3593160749553
233,26.8441126603978
234,26.3444516952181
235,25.8914180781715
236,25.4591077269619
237,25.04233982513
238,24.6163615829261
239,24.2162874230184
240,23.8582354410578
241,23.5151502622017
242,23.1922127029093
243,22.8853932392678
244,22.5958431638238
245,22.339104925955
246,22.0973334911906
247,21.8624698117052
248,21.6431485815975
249,21.4278568754026
250,21.2217755095796
251,21.0185723751229
252,20.8228526422184
253,20.6259816167674
254,20.4325644689559
255,20.2316639195922
256,20.0261582000425
257,19.8102908475743
258,19.5852131547341
259,19.3566815842544
260,19.1298769525945
261,18.8973158582021
262,18.6595739473505
263,18.4258615604116
264,18.1961786973854
265,17.9555585551676
266,17.7143627666764
267,17.4789234409178
268,17.2331224822407
269,16.9844432921973
270,16.7397936260667
271,16.4830553881979
272,16.2274684428755
273,15.9764866677392
274,15.7099624432251
275,15.4399843410716
276,15.174611409104
277,14.9000281367645
278,14.6254448644249
279,14.3491346532656
280,14.0647653942809
281,13.7769422576566
282,13.4914217061254
283,13.2133845561463
284,12.9359230524405
285,12.6584615487348
286,12.3890590928545
287,12.1156271130614
288,11.8473759497276
289,11.5785491401206
290,11.3172057320657
291,11.0633457255631
292,10.8117883041535
293,10.5688655768427
294,10.3409096526363
295,10.1169832523426
296,9.88960297440943
297,9.67776514585398
298,9.47571330394375
299,9.27999357103925
300,9.08427383813476
301,8.892583629143
302,8.70780117543023
303,8.53280470836268
304,8.36183776520788
305,8.19490034596581
306,8.01472306243902
307,7.83915094909823
308,7.68890727178037
309,7.54557134974149
310,7.4056893053421
311,7.26638290721596
312,7.12822780163632
313,6.99410221996941
314,6.8645818084885
315,6.74369609110631
316,6.62396166627062
317,6.50307594888843
318,6.38103893895975
319,6.26936356194954
320,6.15538559984633
321,6.04025634519663
322,5.92742967563992
323,5.8192081762692
324,5.71789443217746
325,5.61255116417299
326,5.50260272598252
327,5.40128898189078
328,5.30630734680478
329,5.21247700426527
330,5.11749536917927
331,5.028845843099
332,4.93731808565248
333,4.84291209683973
334,4.75771644839895
335,4.67021821486517
336,4.58790079779064
337,4.5067346732626
338,4.4272954875543
339,4.34728065557276
340,4.26956840868421
341,4.19185616179566
342,4.11069003726762
343,4.03643166801856
344,3.96505153013575
345,3.89885220871217
346,3.83380417983509
347,3.76702921213826
348,3.70485941462742
349,3.64441655593633
350,3.58339805097198
351,3.52756036246688
352,3.46826879632228
353,3.41070416899743
354,3.35832035813182
355,3.30881477863244
356,3.25412838267384
357,3.20404715690121
358,3.15108769976235
359,3.09985518144323
360,3.0555304184031
361,3.00487354635723
362,2.95479232058461
363,2.90471109481199
364,2.85923503922536
365,2.80972945972598
366,2.75964823395336
367,2.71244523954699
368,2.67042306159984
369,2.62552265228646
370,2.58350047433932
371,2.54205394266543
372,2.50003176471829
373,2.45225312403866
374,2.41138223863801
375,2.36648182932463
376,2.32618659019723
377,2.28531570479659
378,2.2438691731227
379,2.2035739339953
380,2.16385434114115
381,2.128739918473
382,2.08614209425261
383,2.04757379394496
384,2.01188372500355
385,1.97676930233539
386,1.94280617221373
387,1.90769174954557
388,1.87315297315066
389,1.84264372066848
390,1.81040752936657
391,1.77932263061115
392,1.74881337812898
393,1.71887977192006
394,1.68664358061814
395,1.65843691322896
396,1.63310847720603
397,1.60605310236335
398,1.58014902006716
399,1.55539623031748
400,1.52776520920155
401,1.50301241945186
402,1.47825962970218
403,1.45235554740599
404,1.42760275765631
405,1.40457690672637
406,1.37982411697668
407,1.35679826604674
408,1.33204547629706
409,1.30901962536711
410,1.28656942071042
411,1.26642180114672
412,1.24397159649003
413,1.22555091574608
414,1.20540329618238
415,1.18583132289193
416,1.16625934960148
417,1.14496043749129
418,1.12826669556708
419,1.10984601482313
420,1.09315227289892
421,1.07530723842822
422,1.05688655768427
423,1.03961716948681
424,1.01946954992311
425,1.0039271005454
426,0.989535943714191
427,0.971115262970239
428,0.953270228499535
429,0.938303425395074
430,0.927366146203352
431,0.909521111732648
432,0.897432539994429
433,0.884768321982962
434,0.868650226332004
435,0.855986008320537
436,0.842170497762572
437,0.826628048384862
438,0.815115122919892
439,0.801299612361928
440,0.789786686896958
441,0.775971176338993
442,0.764458250874023
443,0.755247910502047
444,0.743159338763828
445,0.732797705845355
446,0.721284780380385
447,0.712074440008409
448,0.69998586827019
449,0.68847294280522
450,0.680413894979741
451,0.670627908334516
452,0.658539336596297
453,0.652207227590563
454,0.638967363305848
455,0.631483961753617
456,0.622273621381641
457,0.613063281009665
458,0.606155525730683
459,0.596945185358706
460,0.58773484498673
461,0.576797565795008
462,0.566435932876535
463,0.560103823870802
464,0.550893483498825
465,0.546863959586086
466,0.539380558033855
467,0.527867632568885
468,0.51808164592366
469,0.514052122010921
470,0.505993074185442
471,0.499085318906459
472,0.489874978534483
473,0.481815930709004
474,0.477210760523016
475,0.468576066424288
476,0.4639708962383
477,0.457063140959318
478,0.45245797077333
479,0.449004093133839
480,0.44094504530836
481,0.432885997482881
482,0.431159058663135
483,0.425978242203898
484,0.419646133198165
485,0.415040963012177
486,0.408133207733195
487,0.404103683820455
488,0.401801098727461
489,0.391439465808988
490,0.389136880715994
491,0.383380417983509
492,0.37877524779752
493,0.373594431338284
494,0.367837968605799
495,0.365535383512805
496,0.362657152146562
497,0.360354567053568
498,0.35171987295484
499,0.345387763949107
500,0.343085178856113
501,0.337904362396876
502,0.333299192210888
503,0.330420960844646
504,0.326391436931906
505,0.326391436931906
506,0.319483681652924
507,0.316029804013433
508,0.313727218920439
509,0.310848987554196
510,0.304516878548463
511,0.302789939728717
512,0.299336062089226
513,0.297033476996232
514,0.295882184449735
515,0.292428306810244
516,0.284944905258013
517,0.282066673891771
518,0.279764088798777
519,0.277461503705782
520,0.273431979793043
521,0.269402455880303
522,0.266524224514061
523,0.264221639421067
524,0.260192115508327
525,0.258465176688582
526,0.253860006502594
527,0.249254836316605
528,0.246952251223611
529,0.245225312403866
530,0.239468849671381
531,0.238317557124884
532,0.231409801845902
533,0.227955924206411
534,0.227955924206411
535,0.225653339113416
536,0.223350754020422
537,0.222199461473926
538,0.221048168927428
539,0.218745583834434
540,0.21644299874144
541,0.211837828555452
542,0.207232658369464
543,0.206657012096216
544,0.204354427003222
545,0.202051841910227
546,0.201476195636979
547,0.200900549363731
548,0.196295379177742
549,0.195719732904494
550,0.195719732904494
551,0.194568440357997
552,0.187660685079015
553,0.187660685079015
554,0.185358099986021
555,0.183055514893027
556,0.180752929800033
557,0.176147759614044
558,0.176147759614044
559,0.175572113340796
560,0.173269528247802
561,0.173269528247802
562,0.173269528247802
563,0.169815650608311
564,0.166937419242069
565,0.165210480422323
566,0.165210480422323
567,0.16233224905608
568,0.16233224905608
569,0.159454017689838
570,0.159454017689838
571,0.157727078870092
572,0.153697554957353
573,0.152546262410856
574,0.151970616137607
575,0.150243677317862
576,0.14678979967837
577,0.145062860858625
578,0.146214153405122
579,0.144487214585376
580,0.142184629492382
581,0.13930639812614
582,0.138155105579643
583,0.13930639812614
584,0.138155105579643
585,0.136428166759897
586,0.137003813033146
587,0.131822996573909
588,0.130671704027412
589,0.132974289120406
590,0.129520411480915
591,0.124915241294927
592,0.123188302475181
593,0.124339595021678
594,0.12376394874843
595,0.123188302475181
596,0.123188302475181
597,0.121461363655436
598,0.120310071108939
599,0.119158778562442
600,0.118583132289193
601,0.116280547196199
602,0.113977962103205
603,0.118007486015945
604,0.112826669556708
605,0.11225102328346
606,0.110524084463714
607,0.109948438190466
608,0.109948438190466
609,0.109948438190466
610,0.109372791917217
611,0.109372791917217
612,0.10822149937072
613,0.105918914277726
614,0.105918914277726
615,0.103616329184732
616,0.102465036638235
617,0.101889390364987
618,0.101889390364987
619,0.101313744091738
620,0.0995868052719925
621,0.099011158998744
622,0.097859866452247
623,0.0972842201789987
624,0.0972842201789987
625,0.0972842201789987
626,0.0972842201789987
627,0.0961329276325016
628,0.0955572813592529
629,0.0949816350860044
630,0.0955572813592529
631,0.0955572813592529
632,0.0926790499930103
633,0.0921034037197618
634,0.0926790499930103
635,0.0909521111732648
636,0.0921034037197618
637,0.0909521111732648
638,0.0886495260802708
639,0.0863469409872767
640,0.0851956484407797
641,0.086922587260525
642,0.0851956484407795
643,0.0840443558942824
644,0.0823174170745369
645,0.0817417708012886
646,0.0794391857082946
647,0.0811661245280401
648,0.0788635394350461
649,0.0782878931617975
650,0.0794391857082943
651,0.0782878931617975
652,0.0771366006153008
653,0.0742583692490582
654,0.0765609543420518
655,0.077712246888549
656,0.075409661795555
657,0.0719557841560639
658,0.074258369249058
659,0.0731070767025609
660,0.0725314304293124
661,0.0725314304293124
662,0.0690775527898214
663,0.0690775527898214
664,0.0713801378828157
665,0.0719557841560639
666,0.0725314304293124
667,0.0708044916095669
668,0.0685019065165729
669,0.0702288453363184
670,0.0708044916095667
671,0.0719557841560639
672,0.0719557841560639
673,0.0702288453363184
674,0.0679262602433243
675,0.0702288453363184
676,0.0690775527898214
677,0.0690775527898214
678,0.0656236751503303
679,0.0673506139700758
680,0.0685019065165729
681,0.0656236751503303
682,0.0650480288770818
683,0.0633210900573363
684,0.0621697975108392
685,0.0656236751503305
686,0.0633210900573363
687,0.0627454437840877
688,0.062745443784088
689,0.0598672124178452
690,0.0615941512375907
691,0.0575646273248511
692,0.0587159198713482
693,0.0610185049643422
694,0.0592915661445967
695,0.0610185049643422
696,0.0598672124178454
697,0.0581402735980997
698,0.0558376885051056
699,0.0546863959586086
700,0.0535351034121116
701,0.050656872045869
702,0.0523838108656145
703,0.0500812257726205
704,0.0477786406796265
705,0.0472029944063779
706,0.0495055794993722
707,0.0500812257726205
708,0.0529594571388633
709,0.0523838108656145
710,0.0489299332261235
711,0.0477786406796267
712,0.048354286952875
713,0.048354286952875
714,0.0472029944063779
715,0.0449004093133841
716,0.0420221779471411
717,0.0454760555866324
718,0.0454760555866322
719,0.0449004093133837
720,0.0466273481331297
721,0.0460517018598809
722,0.0454760555866322
723,0.0437491167668869
724,0.0431734704936384
725,0.0443247630401356
726,0.0408708854006443
727,0.0425978242203899
728,0.0425978242203899
729,0.0437491167668869
730,0.0431734704936384
731,0.0437491167668869
732,0.0408708854006443
733,0.0402952391273958
734,0.0414465316738928
735,0.0368413614879052
736,0.0351144226681592
737,0.0328118375751654
738,0.0322361913019169
739,0.0328118375751654
740,0.0299336062089226
741,0.0316605450286679
742,0.0339631301216622
743,0.0310848987554201
744,0.0299336062089226
745,0.0287823136624256
746,0.0293579599356741
747,0.0293579599356741
748,0.0282066673891771
749,0.0247527897496858
750,0.0253284360229343
751,0.0287823136624256
752,0.0270553748426803
753,0.0287823136624256
754,0.0293579599356748
755,0.0276310211159288
756,0.0264797285694318
757,0.0276310211159288
758,0.0316605450286686
759,0.0276310211159288
760,0.0276310211159288
761,0.0293579599356748
762,0.0276310211159288
763,0.0287823136624256
764,0.0264797285694318
765,0.0247527897496858
766,0.0276310211159288
767,0.0270553748426803
768,0.0299336062089226
769,0.0310848987554201
770,0.0345387763949107
771,0.0333874838484132
772,0.0322361913019162
773,0.0305092524821709
774,0.0305092524821709
775,0.0310848987554201
776,0.0333874838484139
777,0.0345387763949107
778,0.0333874838484139
779,0.0322361913019162
780,0.0316605450286679
781,0.0293579599356741
782,0.0305092524821709
783,0.0270553748426796
784,0.0305092524821709
785,0.0316605450286686
786,0.0339631301216617
787,0.0322361913019162
788,0.0351144226681592
789,0.0305092524821709
790,0.0316605450286686
791,0.0305092524821709
792,0.0305092524821709
793,0.0316605450286686
794,0.0328118375751647
795,0.0305092524821716
796,0.0339631301216617
797,0.0328118375751647
798,0.0322361913019162
799,0.0299336062089226
800,0.0328118375751654
