Wavelength,Abs
200,87.1764472670278
201,87.3980710822285
202,87.8200198005197
203,88.1792230750267
204,88.4699244430172
205,88.7203305718803
206,88.9361979243485
207,89.1192534392415
208,89.2873421510301
209,89.435283243255
210,88.5626034930102
211,87.6789864635738
212,87.7751193912063
213,84.3955001209643
214,81.0055192178038
215,79.0431410722996
216,77.0755821103362
217,74.5767016381644
218,71.1573627750682
219,68.8478699267952
220,66.3426573456177
221,64.7924419317594
222,63.5070238035955
223,61.9878932884927
224,60.6823275407651
225,59.5356401644541
226,58.5029307502462
227,57.7874024325983
228,57.5732620189499
229,57.3717858233129
230,56.9544422752077
231,56.549762945114
232,55.9781461957782
233,55.2534075377584
234,54.7422336471137
235,54.2661741791372
236,53.663472531046
237,52.9565789074968
238,52.1575818802279
239,51.5341569662997
240,50.9550568154117
241,50.1905985645377
242,49.5729301133421
243,49.0059185341923
244,48.3732832798922
245,47.872471022166
246,47.2438652917786
247,46.6451931676001
248,46.1541668965191
249,45.616513277305
250,45.046623466789
251,44.5003351534762
252,43.8786371783678
253,43.205131038667
254,42.6133666697676
255,41.9404361763401
256,41.1984281301227
257,40.5174385888697
258,39.8157257817798
259,39.0898358312134
260,38.4094219362337
261,37.7370670890794
262,37.1147934676978
263,36.5518114124607
264,36.0181873171594
265,35.5104673041542
266,35.0781569529445
267,34.6423927240954
268,34.2031746176068
269,33.8278532474488
270,33.4611665713895
271,33.075483568313
272,32.7024647832479
273,32.3386563385549
274,31.9547002742981
275,31.5811058429598
276,31.2075114116215
277,30.7970756187954
278,30.3912449961552
279,29.9928977750672
280,29.5795837508748
281,29.1443951682989
282,28.6907859049791
283,28.2584755537694
284,27.835951189205
285,27.4019138991756
286,26.9690279016928
287,26.5367175504831
288,26.1095880157327
289,25.6680673241511
290,25.2248196937498
291,24.7959632201796
292,24.3648041615165
293,23.9422797969521
294,23.5370248205851
295,23.1427071234099
296,22.7380277933162
297,22.3465883275072
298,21.9695400185294
299,21.5965212334644
300,21.2258050334924
301,20.868328697805
302,20.5223652875827
303,20.1815826938196
304,19.8540399643412
305,19.5282241736825
306,19.1431168168792
307,18.764917215355
308,18.4604003368065
309,18.155883458258
310,17.8617282126281
311,17.5773589536433
312,17.287233231926
313,16.9919266937496
314,16.710435666131
315,16.4352767475183
316,16.1681768767309
317,15.8999257133971
318,15.6236155022379
319,15.362272094183
320,15.0986261010352
321,14.8292236451549
322,14.5736366998326
323,14.3157471694172
324,14.0670679793739
325,13.8143592654178
326,13.5593479663687
327,13.3198791166973
328,13.0913475462176
329,12.8616646831915
330,12.6400408679908
331,12.4224465767029
332,12.1996714689557
333,11.9832284702143
334,11.7759958118448
335,11.5687631534753
336,11.3621061413791
337,11.1635081771084
338,10.9735449069364
339,10.7784008203051
340,10.5786515634879
341,10.3812048917637
342,10.1872120976789
343,10.0070348141521
344,9.82513059180559
345,9.65531494119728
346,9.49355833841445
347,9.33467996699786
348,9.17119642539528
349,9.01634757789144
350,8.86322566920733
351,8.70837682170348
352,8.56158702202511
353,8.41422157607349
354,8.2743395316741
355,8.13733571864096
356,8.00436142952055
357,7.86447938512116
358,7.73092944972751
359,7.5991064531536
360,7.47419121185867
361,7.347549031744
362,7.22148249790258
363,7.10002113424714
364,6.97625718549871
365,6.85076629793053
366,6.7293049342751
367,6.61532697217189
368,6.50422724143493
369,6.39024927933173
370,6.28145213368776
371,6.18013838959602
372,6.07824899923103
373,5.97290573122655
374,5.86525987812908
375,5.76279484149085
376,5.66954014522459
377,5.57801238777808
378,5.48360639896532
379,5.38574653251307
380,5.29537006761306
381,5.21190135799202
382,5.12325183191175
383,5.03172407446524
384,4.94077196329197
385,4.85269808348495
386,4.77038066641041
387,4.68691195678938
388,4.60401889344159
389,4.52055018382056
390,4.43995970556577
391,4.35821793476448
392,4.27935439532943
393,4.20336908726063
394,4.12508119409883
395,4.05082282484978
396,3.97944268696696
397,3.90863819535739
398,3.84128758138732
399,3.77278567487074
400,3.70601070717392
401,3.63750880065734
402,3.56670430904778
403,3.5016562801707
404,3.43545695874712
405,3.37098457614328
406,3.3070878398127
407,3.24491804230186
408,3.18562647615726
409,3.12806184883241
410,3.07107286778081
411,3.01408388672921
412,2.96170007586359
413,2.90874061872473
414,2.85405422276612
415,2.80224605817375
416,2.75274047867438
417,2.70611313054125
418,2.65948578240812
419,2.61573666564124
420,2.56910931750811
421,2.52593584701447
422,2.47988414515459
423,2.43958890602719
424,2.39641543553355
425,2.35554455013291
426,2.31812754237176
427,2.27668101069786
428,2.23581012529722
429,2.20012005635581
430,2.16385434114115
431,2.1252860408335
432,2.09017161816534
433,2.05448154922394
434,2.01994277282903
435,1.98885787407361
436,1.95662168277169
437,1.92496113774302
438,1.89272494644111
439,1.86048875513919
440,1.83055514893027
441,1.80062154272134
442,1.77068793651242
443,1.74535950048949
444,1.71485024800732
445,1.68606793434489
446,1.66073949832196
447,1.63541106229902
448,1.60490180981685
449,1.57957337379392
450,1.55539623031748
451,1.53179473311429
452,1.50589065081811
453,1.48344044616141
454,1.46099024150472
455,1.43508615920854
456,1.4120603082786
457,1.39133704244165
458,1.36600860641872
459,1.34528534058177
460,1.32225948965183
461,1.29980928499514
462,1.28253989679768
463,1.26239227723399
464,1.23936642630405
465,1.21921880674035
466,1.20252506481614
467,1.18180179897919
468,1.16510805705499
469,1.14726302258428
470,1.12538846420084
471,1.10696778345689
472,1.09084968780593
473,1.07588288470147
474,1.05746220395752
475,1.04191975457981
476,1.02580165892885
477,1.01428873346388
478,1.00047322290591
479,0.985506419801451
480,0.968237031603996
481,0.957875398685523
482,0.942332949307813
483,0.932546962662589
484,0.917004513284879
485,0.903189002726915
486,0.891676077261944
487,0.883041383163217
488,0.871528457698246
489,0.856561654593785
490,0.845048729128815
491,0.834687096210342
492,0.823174170745371
493,0.808783013914159
494,0.798421380995685
495,0.789211040623709
496,0.774819883792496
497,0.767912128513514
498,0.756974849321793
499,0.743734985037077
500,0.736827229758095
501,0.72704124311287
502,0.717830902740894
503,0.710347501188663
504,0.699410221996941
505,0.690199881624965
506,0.680989541252989
507,0.67293049342751
508,0.663720153055534
509,0.656236751503303
510,0.645299472311581
511,0.638967363305848
512,0.630908315480369
513,0.624000560201386
514,0.615941512375907
515,0.605579879457434
516,0.598096477905203
517,0.588310491259979
518,0.583705321073991
519,0.574494980702014
520,0.565860286603287
521,0.559528177597553
522,0.549742190952328
523,0.54513702076634
524,0.536502326667613
525,0.532472802754873
526,0.523262462382897
527,0.514052122010921
528,0.507144366731939
529,0.498509672633211
530,0.492753209900726
531,0.484694162075247
532,0.480088991889259
533,0.469727358970785
534,0.465122188784797
535,0.460517018598809
536,0.453609263319827
537,0.447852800587342
538,0.439793752761863
539,0.437491167668869
540,0.432885997482881
541,0.425978242203898
542,0.42137307201791
543,0.418494840651668
544,0.409284500279692
545,0.404679330093704
546,0.399498513634467
547,0.39431769717523
548,0.389712526989242
549,0.382229125437012
550,0.379926540344018
551,0.376472662704527
552,0.371867492518538
553,0.36726232233255
554,0.362657152146562
555,0.358051981960574
556,0.353446811774586
557,0.348841641588598
558,0.341933886309616
559,0.339055654943373
560,0.336753069850379
561,0.332147899664391
562,0.327542729478403
563,0.324088851838912
564,0.321210620472669
565,0.319483681652924
566,0.314878511466936
567,0.307395109914705
568,0.307395109914705
569,0.302214293455469
570,0.299911708362474
571,0.298184769542729
572,0.289550075444001
573,0.283793612711516
574,0.283217966438268
575,0.281491027618522
576,0.275734564886037
577,0.271705040973297
578,0.2705537484268
579,0.266524224514061
580,0.261919054328073
581,0.25904082296183
582,0.255586945322339
583,0.254435652775842
584,0.248679190043357
585,0.246952251223611
586,0.242922727310872
587,0.240044495944629
588,0.238893203398132
589,0.234288033212144
590,0.230834155572653
591,0.226228985386665
592,0.222199461473925
593,0.223350754020422
594,0.22047252265418
595,0.215291706194943
596,0.212989121101949
597,0.211262182282204
598,0.210110889735707
599,0.206657012096216
600,0.201476195636979
601,0.199173610543985
602,0.199173610543985
603,0.198597964270736
604,0.1934171478115
605,0.190538916445257
606,0.186509392532518
607,0.185933746259269
608,0.185933746259269
609,0.185933746259269
610,0.183055514893027
611,0.183055514893027
612,0.179601637253536
613,0.177299052160542
614,0.177299052160542
615,0.174996467067547
616,0.169240004335062
617,0.16636177296882
618,0.16636177296882
619,0.165786126695571
620,0.164059187875826
621,0.163483541602577
622,0.160029663963086
623,0.159454017689838
624,0.157151432596844
625,0.157151432596844
626,0.157151432596844
627,0.153697554957353
628,0.153121908684104
629,0.152546262410856
630,0.148516738498116
631,0.148516738498116
632,0.145638507131873
633,0.142760275765631
634,0.138730751852891
635,0.137003813033146
636,0.135852520486649
637,0.132398642847158
638,0.132398642847158
639,0.130096057754164
640,0.126642180114673
641,0.126066533841424
642,0.124339595021678
643,0.123188302475181
644,0.121461363655436
645,0.120885717382187
646,0.123188302475181
647,0.120310071108939
648,0.118007486015945
649,0.117431839742696
650,0.113977962103205
651,0.112826669556708
652,0.109372791917217
653,0.108797145643969
654,0.106494560550975
655,0.105343268004478
656,0.105343268004478
657,0.104191975457981
658,0.101889390364987
659,0.10073809781849
660,0.100162451545241
661,0.104767621731229
662,0.101313744091738
663,0.099011158998744
664,0.0990111589987442
665,0.0972842201789984
666,0.0955572813592529
667,0.0961329276325014
668,0.0938303425395074
669,0.0932546962662589
670,0.0938303425395074
671,0.0903764649000163
672,0.0903764649000163
673,0.0886495260802708
674,0.0863469409872767
675,0.0863469409872767
676,0.0851956484407795
677,0.0851956484407797
678,0.0863469409872767
679,0.0857712947140282
680,0.0846200021675312
681,0.0817417708012886
682,0.0811661245280401
683,0.0794391857082943
684,0.0805904782547916
685,0.0771366006153008
686,0.0748340155223065
687,0.0788635394350461
688,0.076560954342052
689,0.0736827229758092
690,0.0731070767025609
691,0.0713801378828154
692,0.0725314304293124
693,0.0702288453363184
694,0.0708044916095669
695,0.0725314304293124
696,0.0690775527898214
697,0.0673506139700758
698,0.0650480288770818
699,0.0638967363305848
700,0.0627454437840877
701,0.0621697975108392
702,0.0638967363305848
703,0.0615941512375907
704,0.0592915661445967
705,0.0587159198713482
706,0.0587159198713482
707,0.0592915661445967
708,0.0575646273248511
709,0.0546863959586086
710,0.0558376885051058
711,0.0523838108656145
712,0.0529594571388631
713,0.0529594571388631
714,0.051808164592366
715,0.049505579499372
716,0.0489299332261232
717,0.0477786406796267
718,0.0477786406796262
719,0.0472029944063779
720,0.0466273481331297
721,0.0460517018598809
722,0.0454760555866322
723,0.0460517018598809
724,0.0431734704936384
725,0.0397195928541473
726,0.0408708854006443
727,0.0402952391273958
728,0.0402952391273958
729,0.0391439465808986
730,0.0408708854006443
731,0.0414465316738928
732,0.0385683003076503
733,0.0333874838484139
734,0.0345387763949107
735,0.0299336062089226
736,0.0259040822961832
737,0.0259040822961832
738,0.0299336062089226
739,0.0282066673891771
740,0.025328436022935
741,0.0270553748426803
742,0.0247527897496858
743,0.0241771434764375
744,0.0230258509299405
745,0.0241771434764375
746,0.0247527897496865
747,0.022450204656692
748,0.023601497203189
749,0.022450204656692
750,0.020723265836946
751,0.0218745583834436
752,0.022450204656692
753,0.0264797285694318
754,0.0247527897496865
755,0.0253284360229343
756,0.0264797285694318
757,0.025328436022935
758,0.0247527897496865
759,0.025328436022935
760,0.0276310211159288
761,0.0270553748426803
762,0.025328436022935
763,0.0287823136624256
764,0.0264797285694318
765,0.0247527897496858
766,0.0276310211159288
767,0.0270553748426803
768,0.0299336062089226
769,0.0287823136624256
770,0.0322361913019169
771,0.0310848987554194
772,0.0322361913019162
773,0.0305092524821709
774,0.0305092524821709
775,0.0310848987554201
776,0.0333874838484139
777,0.0345387763949107
778,0.0333874838484139
779,0.0322361913019162
780,0.0316605450286679
781,0.0293579599356741
782,0.0305092524821709
783,0.0316605450286679
784,0.0328118375751654
785,0.0316605450286686
786,0.0339631301216617
787,0.0322361913019162
788,0.0351144226681592
789,0.0305092524821709
790,0.0316605450286686
791,0.0328118375751647
792,0.0305092524821709
793,0.0316605450286686
794,0.0305092524821709
795,0.0305092524821716
796,0.0316605450286679
797,0.0305092524821709
798,0.0276310211159288
799,0.0299336062089226
800,0.0305092524821709
