Wavelength,Abs
200,13.4390378952597
201,12.4777086189347
202,10.7450133364567
203,9.34964677010232
204,8.1983542236053
205,7.22090685162933
206,6.44954084547632
207,5.82784287036793
208,5.28558408096783
209,4.83082352510151
210,4.46586378786195
211,4.15386350776126
212,3.89597397734593
213,3.6726232233255
214,3.47805478296751
215,3.29499926807448
216,3.13842348175088
217,2.99220932834576
218,2.85750810040561
219,2.72856333519794
220,2.61573666564124
221,2.51096904391001
222,2.41080659236477
223,2.3198544811915
224,2.23465883275072
225,2.15637093958892
226,2.07923433897362
227,2.0101567861838
228,1.94568440357997
229,1.87890943588314
230,1.81213446818631
231,1.75341854831497
232,1.69240004335062
233,1.63713800111877
234,1.58763242161939
235,1.53927813466652
236,1.49322643280664
237,1.45177990113275
238,1.41033336945885
239,1.37579459306394
240,1.34355840176203
241,1.30901962536711
242,1.28138860425119
243,1.25030370549577
244,1.22152139183334
245,1.1996468334499
246,1.17777227506645
247,1.15589771668301
248,1.13747703593906
249,1.11905635519511
250,1.09948438190466
251,1.07876111606771
252,1.06494560550975
253,1.04882750985879
254,1.03155812166133
255,1.01198614837088
256,1.00047322290591
257,0.984355127254955
258,0.967085739057499
259,0.949816350860044
260,0.93600084030208
261,0.919882744651121
262,0.903764649000163
263,0.89340301608169
264,0.878436212977229
265,0.86231811732627
266,0.845048729128815
267,0.834687096210342
268,0.817417708012886
269,0.803602197454922
270,0.784030224164473
271,0.766760835967017
272,0.751794032862556
273,0.732222059572107
274,0.714952671374651
275,0.695380698084202
276,0.679262602433243
277,0.660841921689291
278,0.64587511858483
279,0.629757022933871
280,0.609033757096925
281,0.584856613620488
282,0.566435932876535
283,0.545712667039589
284,0.529594571388631
285,0.511173890644678
286,0.493904502447223
287,0.477786406796265
288,0.461668311145306
289,0.439793752761863
290,0.425978242203898
291,0.413314024192431
292,0.401801098727461
293,0.386834295623
294,0.369564907425544
295,0.359203274507071
296,0.347690349042101
297,0.333874838484137
298,0.323513205565663
299,0.310848987554196
300,0.303941232275214
301,0.293579599356741
302,0.287823136624256
303,0.276310211159286
304,0.267099870787309
305,0.262494700601321
306,0.253284360229345
307,0.24752789749686
308,0.240620142217878
309,0.233712386938896
310,0.225653339113416
311,0.223350754020422
312,0.218745583834434
313,0.210686536008955
314,0.207232658369464
315,0.203778780729973
316,0.200324903090482
317,0.195719732904494
318,0.189963270172009
319,0.183055514893027
320,0.180752929800033
321,0.178450344707039
322,0.174996467067547
323,0.170391296881559
324,0.163483541602577
325,0.163483541602577
326,0.161180956509583
327,0.160029663963086
328,0.151970616137607
329,0.15081932359111
330,0.153121908684104
331,0.147365445951619
332,0.143911568312128
333,0.141608983219134
334,0.140457690672637
335,0.134701227940152
336,0.137003813033146
337,0.135852520486649
338,0.133549935393655
339,0.135852520486649
340,0.132398642847158
341,0.130096057754164
342,0.128944765207667
343,0.12779347266117
344,0.124339595021678
345,0.122037009928684
346,0.125490887568175
347,0.122037009928684
348,0.122037009928684
349,0.122037009928684
350,0.123188302475181
351,0.11973442483569
352,0.113977962103205
353,0.116280547196199
354,0.116280547196199
355,0.116280547196199
356,0.115129254649702
357,0.112826669556708
358,0.113977962103205
359,0.113977962103205
360,0.111675377010211
361,0.107070206824223
362,0.109372791917217
363,0.109372791917217
364,0.105918914277726
365,0.103616329184732
366,0.107070206824223
367,0.102465036638235
368,0.102465036638235
369,0.103616329184732
370,0.099011158998744
371,0.099011158998744
372,0.100162451545241
373,0.0955572813592529
374,0.099011158998744
375,0.097859866452247
376,0.0955572813592527
377,0.0932546962662589
378,0.0909521111732648
379,0.0898008186267678
380,0.0921034037197618
381,0.0921034037197618
382,0.0886495260802708
383,0.0851956484407797
384,0.088649526080271
385,0.0874982335337737
386,0.0874982335337737
387,0.0874982335337737
388,0.0886495260802708
389,0.0863469409872767
390,0.0817417708012886
391,0.0805904782547916
392,0.0817417708012886
393,0.0817417708012886
394,0.0805904782547916
395,0.0805904782547916
396,0.0782878931617975
397,0.0771366006153005
398,0.0782878931617975
399,0.0759853080688035
400,0.0771366006153005
401,0.0794391857082946
402,0.0748340155223065
403,0.0713801378828157
404,0.0725314304293124
405,0.0725314304293124
406,0.0736827229758095
407,0.0748340155223065
408,0.0725314304293124
409,0.0725314304293124
410,0.0679262602433243
411,0.0667749676968273
412,0.0679262602433243
413,0.0679262602433243
414,0.0690775527898214
415,0.0667749676968273
416,0.0667749676968273
417,0.0679262602433243
418,0.0633210900573363
419,0.0667749676968273
420,0.0633210900573363
421,0.0633210900573363
422,0.0644723826038333
423,0.0633210900573363
424,0.0633210900573363
425,0.0633210900573363
426,0.0564133347783541
427,0.0575646273248511
428,0.0587159198713482
429,0.0587159198713482
430,0.0610185049643422
431,0.0610185049643422
432,0.0598672124178452
433,0.0598672124178454
434,0.0598672124178454
435,0.0610185049643424
436,0.0610185049643424
437,0.0552620422318571
438,0.0564133347783541
439,0.0564133347783541
440,0.0541107496853601
441,0.0541107496853601
442,0.0552620422318573
443,0.050656872045869
444,0.0529594571388631
445,0.051808164592366
446,0.051808164592366
447,0.051808164592366
448,0.0541107496853601
449,0.051808164592366
450,0.049505579499372
451,0.0472029944063779
452,0.049505579499372
453,0.0460517018598809
454,0.048354286952875
455,0.048354286952875
456,0.0460517018598809
457,0.0460517018598809
458,0.0472029944063779
459,0.0472029944063779
460,0.0472029944063779
461,0.0472029944063779
462,0.0472029944063779
463,0.0472029944063779
464,0.0472029944063779
465,0.0437491167668869
466,0.0414465316738928
467,0.0414465316738928
468,0.0414465316738928
469,0.0414465316738928
470,0.0414465316738928
471,0.0414465316738928
472,0.0402952391273958
473,0.0425978242203899
474,0.0425978242203899
475,0.0425978242203899
476,0.0425978242203899
477,0.0402952391273958
478,0.0425978242203899
479,0.0449004093133839
480,0.0402952391273956
481,0.0368413614879047
482,0.0368413614879047
483,0.0368413614879047
484,0.0379926540344018
485,0.0379926540344018
486,0.0379926540344018
487,0.0379926540344018
488,0.0379926540344018
489,0.0379926540344018
490,0.0379926540344018
491,0.037992654034402
492,0.0391439465808988
493,0.0391439465808988
494,0.037992654034402
495,0.0368413614879047
496,0.0356900689414077
497,0.0368413614879047
498,0.037992654034402
499,0.0356900689414077
500,0.0356900689414077
501,0.0345387763949107
502,0.0356900689414077
503,0.0368413614879047
504,0.0356900689414077
505,0.0333874838484137
506,0.0333874838484137
507,0.0345387763949107
508,0.0345387763949107
509,0.0345387763949107
510,0.0333874838484137
511,0.0322361913019169
512,0.0322361913019166
513,0.0310848987554196
514,0.0322361913019166
515,0.0322361913019166
516,0.0299336062089226
517,0.0299336062089226
518,0.0299336062089226
519,0.0299336062089226
520,0.0310848987554196
521,0.0310848987554196
522,0.0322361913019166
523,0.0322361913019166
524,0.0322361913019166
525,0.0299336062089226
526,0.0322361913019169
527,0.0322361913019169
528,0.0299336062089226
529,0.0299336062089226
530,0.0299336062089226
531,0.0333874838484137
532,0.0333874838484137
533,0.0310848987554196
534,0.0310848987554196
535,0.0276310211159285
536,0.0276310211159285
537,0.0264797285694315
538,0.0253284360229345
539,0.0264797285694318
540,0.0264797285694315
541,0.0264797285694315
542,0.0264797285694315
543,0.0264797285694315
544,0.0264797285694318
545,0.0264797285694315
546,0.0264797285694315
547,0.0264797285694315
548,0.0253284360229345
549,0.0253284360229345
550,0.0253284360229345
551,0.0253284360229345
552,0.0253284360229345
553,0.0253284360229345
554,0.0241771434764375
555,0.0253284360229345
556,0.0253284360229345
557,0.0241771434764375
558,0.0241771434764375
559,0.0230258509299405
560,0.0230258509299405
561,0.0241771434764375
562,0.0241771434764375
563,0.0253284360229345
564,0.0253284360229345
565,0.0230258509299405
566,0.0230258509299405
567,0.0230258509299405
568,0.0230258509299405
569,0.0230258509299405
570,0.0207232658369465
571,0.0195719732904495
572,0.0218745583834434
573,0.0172693881974554
574,0.0184206807439524
575,0.0161180956509583
576,0.0184206807439523
577,0.0207232658369465
578,0.0230258509299405
579,0.0230258509299405
580,0.0172693881974554
581,0.0161180956509583
582,0.0207232658369464
583,0.0195719732904495
584,0.0184206807439524
585,0.0184206807439524
586,0.0195719732904493
587,0.0172693881974554
588,0.0207232658369465
589,0.0172693881974554
590,0.0195719732904495
591,0.0195719732904495
592,0.0184206807439524
593,0.0207232658369464
594,0.0207232658369464
595,0.0161180956509583
596,0.0195719732904495
597,0.0172693881974554
598,0.0172693881974554
599,0.0195719732904493
600,0.0184206807439523
601,0.0149668031044613
602,0.0172693881974554
603,0.0207232658369464
604,0.0161180956509583
605,0.0149668031044614
606,0.0149668031044614
607,0.0149668031044614
608,0.0184206807439524
609,0.0184206807439524
610,0.0207232658369464
611,0.0195719732904495
612,0.0184206807439524
613,0.0184206807439524
614,0.0184206807439524
615,0.0184206807439524
616,0.0184206807439524
617,0.0184206807439524
618,0.0184206807439524
619,0.0184206807439524
620,0.0184206807439524
621,0.0184206807439524
622,0.0172693881974554
623,0.0161180956509583
624,0.0161180956509585
625,0.0161180956509585
626,0.0161180956509583
627,0.0161180956509583
628,0.0149668031044614
629,0.0149668031044614
630,0.0161180956509583
631,0.0138155105579642
632,0.0149668031044613
633,0.0138155105579642
634,0.0161180956509583
635,0.0161180956509583
636,0.0149668031044614
637,0.0149668031044613
638,0.0138155105579642
639,0.0172693881974554
640,0.0172693881974554
641,0.0149668031044613
642,0.0138155105579642
643,0.0126642180114673
644,0.0149668031044613
645,0.0149668031044613
646,0.0172693881974554
647,0.0195719732904495
648,0.0149668031044614
649,0.0115129254649702
650,0.0138155105579642
651,0.0126642180114671
652,0.0149668031044614
653,0.0172693881974554
654,0.0149668031044613
655,0.0138155105579642
656,0.0126642180114673
657,0.0149668031044613
658,0.0115129254649702
659,0.0126642180114671
660,0.0138155105579642
661,0.0172693881974554
662,0.0138155105579642
663,0.0126642180114673
664,0.0138155105579642
665,0.0103616329184732
666,0.0103616329184732
667,0.0115129254649702
668,0.0115129254649702
669,0.0115129254649702
670,0.0115129254649702
671,0.0103616329184732
672,0.0138155105579642
673,0.0126642180114673
674,0.0149668031044614
675,0.0138155105579642
676,0.0138155105579643
677,0.0103616329184732
678,0.0115129254649702
679,0.0138155105579643
680,0.0126642180114671
681,0.0138155105579643
682,0.0115129254649701
683,0.0138155105579643
684,0.0126642180114673
685,0.0115129254649702
686,0.0115129254649702
687,0.0126642180114673
688,0.0103616329184732
689,0.0149668031044614
690,0.0149668031044613
691,0.0149668031044613
692,0.0149668031044614
693,0.0138155105579642
694,0.0126642180114673
695,0.0126642180114673
696,0.0161180956509583
697,0.0138155105579642
698,0.0103616329184732
699,0.0103616329184732
700,0.0126642180114671
701,0.0138155105579643
702,0.0138155105579643
703,0.0161180956509583
704,0.0161180956509583
705,0.0126642180114673
706,0.0115129254649702
707,0.0138155105579643
708,0.0138155105579643
709,0.0126642180114671
710,0.010361632918473
711,0.0115129254649702
712,0.0149668031044613
713,0.0149668031044613
714,0.0126642180114671
715,0.0115129254649702
716,0.0172693881974554
717,0.0161180956509585
718,0.0126642180114671
719,0.013815510557964
720,0.0138155105579643
721,0.013815510557964
722,0.0103616329184733
723,0.0149668031044613
724,0.0138155105579643
725,0.0161180956509581
726,0.0149668031044613
727,0.0126642180114675
728,0.0149668031044613
729,0.0161180956509585
730,0.0149668031044616
731,0.0172693881974554
732,0.0195719732904492
733,0.0207232658369467
734,0.0230258509299405
735,0.0230258509299405
736,0.0241771434764375
737,0.0218745583834436
738,0.0218745583834429
739,0.0218745583834436
740,0.0172693881974554
741,0.0207232658369467
742,0.020723265836946
743,0.0230258509299405
744,0.0230258509299405
745,0.0218745583834436
746,0.0230258509299405
747,0.0241771434764375
748,0.0218745583834429
749,0.020723265836946
750,0.0218745583834436
751,0.0184206807439523
752,0.020723265836946
753,0.0172693881974554
754,0.0149668031044609
755,0.0149668031044609
756,0.013815510557964
757,0.0126642180114671
758,0.013815510557964
759,0.0115129254649702
760,0.013815510557964
761,0.0172693881974554
762,0.0184206807439523
763,0.0149668031044616
764,0.0172693881974554
765,0.0184206807439529
766,0.020723265836946
767,0.0195719732904498
768,0.0172693881974554
769,0.0149668031044616
770,0.013815510557964
771,0.013815510557964
772,0.0161180956509585
773,0.0149668031044609
774,0.0149668031044616
775,0.0161180956509585
776,0.0126642180114671
777,0.0126642180114671
778,0.0149668031044609
779,0.0149668031044616
780,0.013815510557964
781,0.0126642180114671
782,0.0138155105579647
783,0.0149668031044609
784,0.013815510557964
785,0.0126642180114678
786,0.0126642180114671
787,0.013815510557964
788,0.0126642180114671
789,0.0103616329184727
790,0.0115129254649702
791,0.013815510557964
792,0.00921034037197644
793,0.00921034037197644
794,0.00921034037197644
795,0.00921034037197581
796,0.00805904782547955
797,0.00805904782547955
798,0.0103616329184733
799,0.00690775527898264
800,0.00921034037197644
