Wavelength,Abs
200,19.5788810457284
201,18.8320759549093
202,17.4750857914209
203,16.3529593304437
204,15.3774307717033
205,14.4993783305835
206,13.7541082811425
207,13.0924988387641
208,12.4523801829118
209,11.8352873779894
210,11.2473606585869
211,10.6617365012515
212,10.0745773255638
213,9.4759052013854
214,8.86341754362313
215,8.24632473870073
216,7.62692934868533
217,7.03362991538191
218,6.44877332478727
219,5.87005692273087
220,5.32357673500223
221,4.81240284435756
222,4.34344300607582
223,3.91055703161879
224,3.51297730819401
225,3.14993640721585
226,2.81836415382471
227,2.53130856091536
228,2.27572159256716
229,2.04239297748572
230,1.83746290420925
231,1.65939633135966
232,1.50282054503606
233,1.36389789574152
234,1.24569853530978
235,1.15052502580798
236,1.06763196246019
237,0.993949216458529
238,0.928709313165648
239,0.879587505523725
240,0.835838388756839
241,0.798229506579886
242,0.766760835967017
243,0.739897358565987
244,0.71533642020625
245,0.696148241799101
246,0.680797643811339
247,0.664679548160381
248,0.651631581317315
249,0.64165369723044
250,0.629373251076422
251,0.62246549579744
252,0.611720091021518
253,0.602509773675392
254,0.59560201839641
255,0.58792674242838
256,0.581018987149398
257,0.571041103062523
258,0.564900868472589
259,0.559528177597553
260,0.547247708417684
261,0.539572432449654
262,0.531129635792577
263,0.524221880513595
264,0.515011540141619
265,0.508103761836785
266,0.499660965179708
267,0.491985666185827
268,0.482775325813851
269,0.474332529156773
270,0.464354645069899
271,0.456679369101869
272,0.44823654941894
273,0.436723646979821
274,0.427513306607845
275,0.418302966235869
276,0.410627690267839
277,0.400649806180964
278,0.390671922094089
279,0.380694061033065
280,0.373786328779934
281,0.360738315885167
282,0.351527998539041
283,0.343852699545161
284,0.334642382199035
285,0.325432018801208
286,0.316221678429232
287,0.308546402461202
288,0.300871103467321
289,0.291660786121196
290,0.283217966438268
291,0.277845275563232
292,0.271705040973297
293,0.263262221290369
294,0.259424594819279
295,0.254051880918393
296,0.246376604950363
297,0.238701328982333
298,0.234096135770494
299,0.2317935506775
300,0.227188380491512
301,0.219513104523482
302,0.214907957363345
303,0.2126053492445
304,0.207232658369464
305,0.20493007327647
306,0.199557359375583
307,0.1934171478115
308,0.186509392532518
309,0.18190422234653
310,0.17806659587544
311,0.179601637253536
312,0.1742289463785
313,0.168856232477613
314,0.165018606006524
315,0.161180956509583
316,0.157343330038494
317,0.156575786323595
318,0.152738136826655
319,0.147365445951619
320,0.145062860858625
321,0.142760275765631
322,0.140457690672637
323,0.137387584890595
324,0.135852520486649
325,0.132014870989708
326,0.12740970080372
327,0.123572074332631
328,0.123572074332631
329,0.122037009928685
330,0.122037009928685
331,0.118966881120792
332,0.117431839742696
333,0.113594190245756
334,0.110524084463714
335,0.108989043085619
336,0.108989043085619
337,0.107453978681672
338,0.108989020059768
339,0.106686457992625
340,0.101313744091738
341,0.0974760945947976
342,0.099011158998744
343,0.0997786796877917
344,0.0959410532167022
345,0.0959410301908513
346,0.0951735095018036
347,0.0967085739057499
348,0.0959410301908513
349,0.0936384450978573
350,0.0921034037197618
351,0.0928709244088095
352,0.0928709244088095
353,0.0913358600048632
354,0.0905683393158155
355,0.0898008186267678
356,0.0898008186267675
357,0.0890332979377201
358,0.0874982335337737
359,0.0851956484407795
360,0.0867306898188751
361,0.0874982335337737
362,0.086730712844726
363,0.086730712844726
364,0.084428127751732
365,0.084428127751732
366,0.0836605840368334
367,0.0836605840368334
368,0.0836605840368334
369,0.0828930633477857
370,0.0813579989438393
371,0.0805904782547916
372,0.0782878931617975
373,0.0767528287578512
374,0.0752177643539046
375,0.0752177643539049
376,0.0759853080688035
377,0.0736827229758095
378,0.0759853080688035
379,0.0744502436648572
380,0.0736827229758095
381,0.0698450965047202
382,0.06984509650472
383,0.0698450734788691
384,0.0706126171937677
385,0.0698450734788691
386,0.067542488385875
387,0.0667749676968273
388,0.0683100090749227
389,0.067542488385875
390,0.0683100090749227
391,0.067542511411726
392,0.0637048619147856
393,0.0660074470077796
394,0.0637048619147856
395,0.0637048619147856
396,0.0637048619147856
397,0.0621697975108392
398,0.0621697975108392
399,0.0621697975108392
400,0.0606347331068929
401,0.0606347561327436
402,0.0606347561327436
403,0.0606347331068927
404,0.0583321480138989
405,0.0583321480138989
406,0.0552620422318571
407,0.0552620422318571
408,0.0567970836099527
409,0.0567971066358037
410,0.0560295629209048
411,0.0552620422318571
412,0.0537270008537619
413,0.0552620422318571
414,0.0560295629209048
415,0.0552620422318571
416,0.0529594571388631
417,0.0521919134239644
418,0.0521919364498153
419,0.0529594571388631
420,0.0514243927349167
421,0.0498893513568213
422,0.0498893513568213
423,0.0506568720458688
424,0.0506568720458688
425,0.0498893513568213
426,0.0514243927349167
427,0.0514243927349167
428,0.0498893283309704
429,0.0498893283309704
430,0.0498893283309704
431,0.0498893283309704
432,0.0468192225489286
433,0.0460517018598809
434,0.0460517018598809
435,0.0445166374559346
436,0.0445166374559346
437,0.0460517018598809
438,0.0460517018598807
439,0.0452841811708332
440,0.0452841811708332
441,0.0452841811708332
442,0.0445166374559346
443,0.0452841811708332
444,0.0445166374559346
445,0.0437491167668869
446,0.0437491167668869
447,0.0437491167668869
448,0.0445166374559346
449,0.0445166374559346
450,0.0422140523629405
451,0.0414465316738928
452,0.0414465316738928
453,0.0422140753887915
454,0.0414465316738928
455,0.0406790109848451
456,0.0422140523629405
457,0.0422140523629405
458,0.0406790109848451
459,0.0406790109848451
460,0.0406790109848451
461,0.0414465316738928
462,0.0399114672699465
463,0.0383764258918511
464,0.0383764258918511
465,0.0376088821769524
466,0.0376088821769524
467,0.0383764258918511
468,0.0383764258918511
469,0.0376088821769524
470,0.0391439465808988
471,0.0391439465808988
472,0.0391439465808988
473,0.036073840798857
474,0.036073840798857
475,0.036073840798857
476,0.036073840798857
477,0.0345387763949107
478,0.0345387763949107
479,0.033771255705863
480,0.033771255705863
481,0.033771255705863
482,0.0353063201098093
483,0.0345387763949107
484,0.0345387763949107
485,0.033771255705863
486,0.033771255705863
487,0.033771255705863
488,0.0345387763949107
489,0.0345387763949107
490,0.033771255705863
491,0.033771255705863
492,0.033771255705863
493,0.033771255705863
494,0.033771255705863
495,0.0322361913019166
496,0.033771255705863
497,0.033771255705863
498,0.0322361913019166
499,0.0322361913019166
500,0.0314686706128689
501,0.0307011499238212
502,0.0299336062089226
503,0.0299336062089226
504,0.0299336062089226
505,0.0307011268979703
506,0.0291660855198749
507,0.0299336062089226
508,0.0299336062089226
509,0.0314686706128689
510,0.0307011268979703
511,0.0291660855198749
512,0.0299336062089226
513,0.0299336062089226
514,0.0307011268979705
515,0.0322361913019169
516,0.0314686706128689
517,0.0314686706128689
518,0.0314686706128689
519,0.0314686706128689
520,0.0307011268979705
521,0.0307011268979705
522,0.0299336062089226
523,0.0291660855198749
524,0.0299336062089226
525,0.0299336062089226
526,0.0291660855198749
527,0.0299336062089226
528,0.0299336062089226
529,0.0299336062089226
530,0.0299336062089226
531,0.0291660855198749
532,0.0291660855198749
533,0.0299336062089226
534,0.0299336062089226
535,0.029166062494024
536,0.029166062494024
537,0.0268635004268808
538,0.0276310211159285
539,0.0268635004268808
540,0.0268635004268808
541,0.0253284360229345
542,0.0253284360229345
543,0.0276310211159285
544,0.0276310211159285
545,0.0276310211159285
546,0.0260959797378331
547,0.0260959797378331
548,0.0260959797378331
549,0.0260959797378331
550,0.0260959797378331
551,0.0276310211159285
552,0.0253284360229345
553,0.0253284360229345
554,0.0260959567119822
555,0.0260959567119822
556,0.0268634774010299
557,0.0268634774010299
558,0.0260959567119822
559,0.0245609153338868
560,0.0245609153338868
561,0.0245609153338868
562,0.0245609153338868
563,0.0230258509299405
564,0.0230258509299405
565,0.0245609153338868
566,0.0260959797378331
567,0.0260959567119822
568,0.0260959567119822
569,0.0260959567119822
570,0.0253284360229345
571,0.0245609153338868
572,0.0253284360229345
573,0.0237933946448391
574,0.0245608923080356
575,0.0253284360229345
576,0.0237933716189882
577,0.0237933946448391
578,0.0230258509299405
579,0.0245608923080359
580,0.0222583302408927
581,0.0230258509299405
582,0.0253284360229345
583,0.0268634774010299
584,0.0268635004268808
585,0.0237933716189882
586,0.0245608923080359
587,0.0237933946448391
588,0.0245608923080359
589,0.0253284360229345
590,0.0222583072150419
591,0.0230258509299405
592,0.0230258509299405
593,0.0253284360229345
594,0.0230258509299405
595,0.0230258509299405
596,0.0260959567119822
597,0.0237933716189882
598,0.0245608923080359
599,0.0260959797378331
600,0.0260959567119822
601,0.0253284360229345
602,0.0245608923080359
603,0.0253284360229345
604,0.0230258509299405
605,0.0222583302408927
606,0.0237933716189882
607,0.0237933716189882
608,0.0230258509299405
609,0.0222583072150418
610,0.0237933716189882
611,0.0253284360229345
612,0.0253284360229345
613,0.0230258509299405
614,0.0222583302408928
615,0.0245609153338868
616,0.0253284360229345
617,0.0230258509299405
618,0.0222583302408928
619,0.0230258509299405
620,0.0222583302408927
621,0.0237933716189882
622,0.0230258509299405
623,0.0214907865259941
624,0.0222583302408927
625,0.0230258509299403
626,0.0237933716189882
627,0.0222583072150418
628,0.0230258509299405
629,0.0237933716189882
630,0.0245609153338868
631,0.0245609153338868
632,0.0237933716189882
633,0.0222583302408927
634,0.0230258509299405
635,0.0237933716189882
636,0.0230258509299405
637,0.0230258509299405
638,0.0237933716189882
639,0.0237933716189882
640,0.0222583302408927
641,0.0230258509299405
642,0.0207232658369465
643,0.0199557451478987
644,0.0199557221220478
645,0.019188201433
646,0.0184206807439523
647,0.0207232658369465
648,0.0207232658369464
649,0.0207232658369464
650,0.0199557451478987
651,0.0176531600549046
652,0.0199557451478986
653,0.0214908095518451
654,0.019188201433
655,0.0199557451478987
656,0.0199557451478987
657,0.0207232658369464
658,0.0214908095518449
659,0.0207232658369464
660,0.0207232658369464
661,0.0191882014330002
662,0.019188224458851
663,0.0176531600549046
664,0.019188201433
665,0.0184206807439523
666,0.0176531600549046
667,0.0176531600549048
668,0.016885639365857
669,0.0161180956509585
670,0.0168856163400061
671,0.0184206807439524
672,0.019188201433
673,0.0176531370290537
674,0.0184206807439523
675,0.019188201433
676,0.019188224458851
677,0.019188224458851
678,0.0176531370290537
679,0.0199557451478987
680,0.0199557221220478
681,0.0199557221220477
682,0.0184206807439524
683,0.016885639365857
684,0.0168856163400059
685,0.019188201433
686,0.0176531600549046
687,0.019188201433
688,0.019188224458851
689,0.0184206807439524
690,0.0191882244588511
691,0.0199557221220477
692,0.0176531600549048
693,0.019188201433
694,0.0199557221220478
695,0.016885639365857
696,0.0168856163400061
697,0.0168856163400061
698,0.016885639365857
699,0.016885639365857
700,0.019188201433
701,0.019188201433
702,0.019188201433
703,0.0184206807439524
704,0.0184206807439524
705,0.0168856163400061
706,0.0184206807439523
707,0.0176531370290539
708,0.0199557451478987
709,0.0199557451478987
710,0.0199557451478987
711,0.0199557451478987
712,0.0207232658369467
713,0.0207232658369464
714,0.0214907865259943
715,0.0222583302408928
716,0.0207232658369464
717,0.0237933716189882
718,0.0260959567119822
719,0.0253284360229345
720,0.0276310211159283
721,0.0268634774010301
722,0.0260959567119822
723,0.0268635004268808
724,0.0283985648308272
725,0.0276310211159288
726,0.0260959797378331
727,0.0260959567119822
728,0.0299336062089226
729,0.0307011268979705
730,0.0299336062089226
731,0.0322361913019166
732,0.0353062970839584
733,0.0353062970839584
734,0.0383764258918513
735,0.0399114902957974
736,0.039143946580899
737,0.0414465316738933
738,0.0414465316738928
739,0.0414465316738928
740,0.0406789879589942
741,0.0406790109848451
742,0.0376089052028036
743,0.0383764028660004
744,0.0383764258918506
745,0.0376089052028036
746,0.0383764258918506
747,0.0368413614879052
748,0.0360738177730059
749,0.0345387763949107
750,0.0345387763949107
751,0.0353063201098093
752,0.0345387763949107
753,0.0322361913019162
754,0.0314686706128687
755,0.0299336062089226
756,0.0283985648308272
757,0.0268635004268804
758,0.0260959797378334
759,0.0260959567119824
760,0.025328436022935
761,0.025328436022935
762,0.020723265836946
763,0.0207232658369467
764,0.0207232658369467
765,0.0184206807439523
766,0.0161180956509585
767,0.0145830312470123
768,0.013815510557964
769,0.013815510557964
770,0.013815510557964
771,0.0130479898689164
772,0.0130479668430655
773,0.0130479898689164
774,0.00997788408687498
775,0.00921034037197581
776,0.0107453817500717
777,0.00997786106102407
778,0.00921034037197644
779,0.0107454047759226
780,0.00614023458993439
781,0.00690775527898264
782,0.00614021156408348
783,0.00767527596802964
784,0.00614021156408348
785,0.00460517018598823
786,0.00307010578204205
787,0.00460517018598823
788,0.00537271390088677
789,0.00460517018598823
790,0.00614021156408348
791,0.00307010578204141
792,0.00307012880789234
793,0.00383764949693995
794,0.00460517018598823
795,0.00383764949694059
796,0.00460517018598823
797,0.00307010578204205
798,0.00383764949694059
799,0.00383762647108969
800,0.00307012880789234
