Wavelength,Abs
200,25.2720226881561
201,24.9577198229625
202,24.3717119167955
203,23.8306044199419
204,23.2779839976233
205,22.7034890169213
206,22.1508685946027
207,21.5660119809822
208,20.8994135965605
209,20.1821583400928
210,19.4326668923232
211,18.6417289128798
212,17.8243112048669
213,16.9815650608311
214,16.1077340180398
215,15.2062719541327
216,14.303658597679
217,13.4206172145158
218,12.5444835866316
219,11.6810141767588
220,10.8751093942109
221,10.1164076060693
222,9.41296786015966
223,8.75557981610986
224,8.14309218137344
225,7.58816917396188
226,7.08044916095669
227,6.63605023800884
228,6.24000560201386
229,5.86698681694883
230,5.53541456355769
231,5.24874271947993
232,4.99430706670408
233,4.7571408021257
234,4.55336202139573
235,4.37836555432818
236,4.22178976800458
237,4.08823983261093
238,3.96390023758925
239,3.85567873821853
240,3.76127274940577
241,3.67837968605799
242,3.60930213326817
243,3.53907328793185
244,3.4803573680605
245,3.42624661837514
246,3.38364879415475
247,3.34565614012035
248,3.30881477863244
249,3.27427600223753
250,3.24549368857511
251,3.21556008236618
252,3.19023164634325
253,3.16490321032032
254,3.14302865193687
255,3.11424633827445
256,3.09122048734451
257,3.06358946622858
258,3.03941232275214
259,3.0152351792757
260,2.98990674325277
261,2.96688089232283
262,2.93694728611391
263,2.91277014263747
264,2.88398782897504
265,2.85635680785911
266,2.82987707928968
267,2.80109476562726
268,2.76770728177884
269,2.74007626066291
270,2.7066887768145
271,2.67330129296609
272,2.64221639421067
273,2.60882891036225
274,2.57313884142085
275,2.53514618738644
276,2.50290999608453
277,2.47067380478261
278,2.4349837358412
279,2.40044495944629
280,2.36130101286539
281,2.321005773738
282,2.28416441225009
283,2.24732305076219
284,2.21048168927428
285,2.17364032778638
286,2.13795025884497
287,2.10341148245006
288,2.06887270605515
289,2.02627488183476
290,1.99173610543985
291,1.95374345140545
292,1.92150726010353
293,1.89042236134811
294,1.8570348774997
295,1.82594997874428
296,1.79601637253536
297,1.76378018123344
298,1.73730045266401
299,1.70851813900158
300,1.68318970297865
301,1.65210480422323
302,1.6256250756538
303,1.60029663963086
304,1.57496820360793
305,1.54963976758499
306,1.52661391665505
307,1.5070419433646
308,1.48171350734167
309,1.45868765641173
310,1.43681309802828
311,1.41608983219134
312,1.39766915144739
313,1.37579459306394
314,1.35622261977349
315,1.33895323157604
316,1.31938125828559
317,1.29635540735565
318,1.2744808489722
319,1.25145499804226
320,1.23533690239131
321,1.21921880674035
322,1.1973442483569
323,1.17662098251996
324,1.16280547196199
325,1.14438479121804
326,1.12366152538109
327,1.11099730736963
328,1.09372791917217
329,1.0810637011607
330,1.06494560550975
331,1.04997880240528
332,1.03040682911484
333,1.01659131855687
334,1.0039271005454
335,0.986657712347949
336,0.975144786882978
337,0.962480568871511
338,0.948665058313547
339,0.939454717941571
340,0.924487914837109
341,0.915277574465133
342,0.902613356453666
343,0.889949138442199
344,0.879587505523725
345,0.863469409872767
346,0.855410362047288
347,0.847351314221809
348,0.835838388756839
349,0.824325463291868
350,0.813963830373395
351,0.803602197454922
352,0.793240564536449
353,0.786332809257467
354,0.777122468885491
355,0.767912128513514
356,0.757550495595041
357,0.750642740316059
358,0.740281107397586
359,0.728768181932615
360,0.724163011746627
361,0.712650086281657
362,0.705742331002675
363,0.696531990630699
364,0.68847294280522
365,0.676960017340249
366,0.66890096951477
367,0.659690629142794
368,0.652782873863812
369,0.644723826038333
370,0.635513485666357
371,0.628605730387375
372,0.622849267654889
373,0.611336342189919
374,0.605579879457434
375,0.595218246538961
376,0.590613076352973
377,0.581402735980997
378,0.576797565795008
379,0.564133347783541
380,0.559528177597553
381,0.552620422318571
382,0.544561374493092
383,0.538804911760607
384,0.533048449028122
385,0.524989401202642
386,0.520384231016654
387,0.515779060830666
388,0.507720013005187
389,0.500812257726205
390,0.493904502447223
391,0.488148039714738
392,0.484694162075247
393,0.477786406796265
394,0.467424773877791
395,0.462819603691803
396,0.458214433505815
397,0.454760555866324
398,0.449004093133839
399,0.442096337854857
400,0.436339875122372
401,0.42943211984339
402,0.424826949657401
403,0.419070486924916
404,0.415616609285425
405,0.406406268913449
406,0.405254976366952
407,0.399498513634467
408,0.397195928541473
409,0.394893343448479
410,0.390288173262491
411,0.382229125437012
412,0.37877524779752
413,0.374170077611532
414,0.370716199972041
415,0.363808444693059
416,0.361505859600065
417,0.35574939686758
418,0.353446811774586
419,0.349992934135095
420,0.34423647140261
421,0.34423647140261
422,0.338480008670125
423,0.33272354593764
424,0.330420960844646
425,0.330420960844646
426,0.323513205565663
427,0.320059327926172
428,0.318908035379675
429,0.314302865193687
430,0.312000280100693
431,0.312000280100693
432,0.306243817368208
433,0.303941232275214
434,0.30163864718222
435,0.298184769542729
436,0.295882184449735
437,0.294730891903238
438,0.288974429170753
439,0.286671844077759
440,0.284369258984765
441,0.282066673891771
442,0.27861279625228
443,0.274007626066291
444,0.269402455880303
445,0.2705537484268
446,0.268251163333806
447,0.265948578240812
448,0.263645993147818
449,0.25904082296183
450,0.25904082296183
451,0.256738237868836
452,0.252133067682848
453,0.246376604950363
454,0.248679190043357
455,0.248679190043357
456,0.244074019857369
457,0.241771434764375
458,0.240620142217878
459,0.238317557124884
460,0.23601497203189
461,0.23601497203189
462,0.233712386938896
463,0.229107216752908
464,0.229107216752908
465,0.227955924206411
466,0.221048168927428
467,0.221048168927428
468,0.218745583834434
469,0.218745583834434
470,0.21644299874144
471,0.209535243462458
472,0.210686536008955
473,0.212989121101949
474,0.210686536008955
475,0.208383950915961
476,0.206081365822967
477,0.206081365822967
478,0.203778780729973
479,0.203778780729973
480,0.201476195636979
481,0.200324903090482
482,0.200324903090482
483,0.198022317997488
484,0.194568440357997
485,0.194568440357997
486,0.194568440357997
487,0.192265855265003
488,0.189963270172009
489,0.187660685079015
490,0.187660685079015
491,0.185358099986021
492,0.184206807439524
493,0.184206807439524
494,0.183055514893027
495,0.179601637253536
496,0.178450344707039
497,0.177299052160542
498,0.176147759614044
499,0.176147759614044
500,0.176147759614044
501,0.170391296881559
502,0.171542589428057
503,0.172693881974553
504,0.169240004335062
505,0.166937419242068
506,0.169240004335062
507,0.168088711788565
508,0.165786126695571
509,0.165786126695571
510,0.164634834149074
511,0.163483541602577
512,0.161180956509583
513,0.160029663963086
514,0.161180956509583
515,0.158878371416589
516,0.158878371416589
517,0.158878371416589
518,0.158878371416589
519,0.156575786323595
520,0.157727078870092
521,0.157727078870092
522,0.156575786323595
523,0.156575786323595
524,0.151970616137607
525,0.149668031044613
526,0.149668031044613
527,0.149668031044613
528,0.147365445951619
529,0.147365445951619
530,0.145062860858625
531,0.148516738498116
532,0.146214153405122
533,0.146214153405122
534,0.146214153405122
535,0.142760275765631
536,0.142760275765631
537,0.141608983219134
538,0.138155105579643
539,0.13930639812614
540,0.137003813033146
541,0.137003813033146
542,0.137003813033146
543,0.137003813033146
544,0.134701227940152
545,0.134701227940152
546,0.132398642847158
547,0.134701227940152
548,0.133549935393655
549,0.131247350300661
550,0.128944765207667
551,0.128944765207667
552,0.128944765207667
553,0.128944765207667
554,0.12779347266117
555,0.128944765207667
556,0.128944765207667
557,0.125490887568175
558,0.125490887568175
559,0.124339595021678
560,0.124339595021678
561,0.125490887568175
562,0.120885717382187
563,0.122037009928684
564,0.122037009928684
565,0.11973442483569
566,0.11973442483569
567,0.11973442483569
568,0.11973442483569
569,0.11973442483569
570,0.117431839742696
571,0.116280547196199
572,0.116280547196199
573,0.116280547196199
574,0.115129254649702
575,0.112826669556708
576,0.112826669556708
577,0.112826669556708
578,0.115129254649702
579,0.115129254649702
580,0.113977962103205
581,0.112826669556708
582,0.112826669556708
583,0.109372791917217
584,0.10822149937072
585,0.110524084463714
586,0.107070206824223
587,0.107070206824223
588,0.110524084463714
589,0.107070206824223
590,0.104767621731229
591,0.107070206824223
592,0.105918914277726
593,0.105918914277726
594,0.103616329184732
595,0.103616329184732
596,0.104767621731229
597,0.100162451545241
598,0.100162451545241
599,0.102465036638235
600,0.099011158998744
601,0.100162451545241
602,0.100162451545241
603,0.099011158998744
604,0.101313744091738
605,0.100162451545241
606,0.100162451545241
607,0.100162451545241
608,0.099011158998744
609,0.099011158998744
610,0.101313744091738
611,0.097859866452247
612,0.0944059888127559
613,0.0967085739057499
614,0.0990111589987442
615,0.0967085739057499
616,0.0944059888127559
617,0.0944059888127559
618,0.0944059888127559
619,0.0944059888127559
620,0.0944059888127559
621,0.0944059888127559
622,0.097859866452247
623,0.0967085739057499
624,0.0944059888127561
625,0.0944059888127561
626,0.0921034037197618
627,0.0967085739057499
628,0.0909521111732648
629,0.0909521111732648
630,0.0921034037197618
631,0.0944059888127559
632,0.0909521111732648
633,0.0921034037197618
634,0.0898008186267678
635,0.0898008186267678
636,0.0886495260802708
637,0.0886495260802708
638,0.0898008186267675
639,0.0886495260802708
640,0.0886495260802708
641,0.0863469409872767
642,0.0874982335337737
643,0.0886495260802708
644,0.0886495260802708
645,0.0886495260802708
646,0.0886495260802708
647,0.0886495260802708
648,0.0863469409872767
649,0.0828930633477857
650,0.0828930633477857
651,0.0863469409872767
652,0.0863469409872767
653,0.0863469409872767
654,0.0863469409872767
655,0.0828930633477857
656,0.0840443558942827
657,0.0840443558942827
658,0.0828930633477857
659,0.0817417708012886
660,0.0851956484407797
661,0.0863469409872767
662,0.0828930633477857
663,0.0817417708012886
664,0.0805904782547916
665,0.0817417708012886
666,0.0817417708012886
667,0.0828930633477857
668,0.0828930633477857
669,0.0828930633477857
670,0.0828930633477857
671,0.0817417708012886
672,0.0828930633477857
673,0.0840443558942827
674,0.0840443558942827
675,0.0851956484407797
676,0.0828930633477859
677,0.0817417708012886
678,0.0828930633477857
679,0.0805904782547916
680,0.0817417708012886
681,0.0851956484407797
682,0.0828930633477857
683,0.0805904782547916
684,0.0794391857082946
685,0.0828930633477857
686,0.0828930633477857
687,0.0817417708012886
688,0.0817417708012886
689,0.0817417708012886
690,0.0840443558942827
691,0.0817417708012886
692,0.0817417708012886
693,0.0805904782547916
694,0.0794391857082946
695,0.0794391857082946
696,0.0828930633477857
697,0.0828930633477857
698,0.0817417708012886
699,0.0794391857082946
700,0.0817417708012886
701,0.0805904782547916
702,0.0828930633477857
703,0.0828930633477859
704,0.0828930633477857
705,0.0817417708012886
706,0.0782878931617975
707,0.0805904782547916
708,0.0805904782547916
709,0.0794391857082943
710,0.0817417708012886
711,0.0805904782547916
712,0.0817417708012886
713,0.0794391857082943
714,0.0794391857082943
715,0.0782878931617975
716,0.0817417708012888
717,0.0805904782547916
718,0.0817417708012886
719,0.0782878931617975
720,0.0782878931617975
721,0.0782878931617975
722,0.0748340155223065
723,0.0794391857082943
724,0.0805904782547916
725,0.0805904782547914
726,0.0794391857082943
727,0.0771366006153008
728,0.0771366006153008
729,0.0759853080688035
730,0.0771366006153008
731,0.0748340155223065
732,0.0725314304293122
733,0.0759853080688035
734,0.0782878931617973
735,0.0759853080688035
736,0.0794391857082948
737,0.0794391857082948
738,0.0794391857082941
739,0.077136600615301
740,0.0748340155223065
741,0.0782878931617973
742,0.0782878931617973
743,0.0805904782547916
744,0.0782878931617973
745,0.0817417708012886
746,0.0828930633477854
747,0.0817417708012886
748,0.0840443558942824
749,0.0828930633477854
750,0.0840443558942829
751,0.0851956484407792
752,0.0851956484407792
753,0.0840443558942829
754,0.0817417708012886
755,0.0886495260802705
756,0.0898008186267675
757,0.0886495260802705
758,0.0921034037197618
759,0.0921034037197618
760,0.0944059888127556
761,0.097859866452247
762,0.099011158998744
763,0.097859866452247
764,0.102465036638235
765,0.101313744091738
766,0.101313744091738
767,0.104767621731229
768,0.107070206824223
769,0.107070206824223
770,0.105918914277726
771,0.105918914277726
772,0.10822149937072
773,0.109372791917217
774,0.107070206824224
775,0.110524084463714
776,0.107070206824223
777,0.104767621731229
778,0.113977962103205
779,0.118583132289193
780,0.117431839742696
781,0.118583132289194
782,0.117431839742696
783,0.120885717382187
784,0.122037009928684
785,0.125490887568176
786,0.123188302475181
787,0.122037009928684
788,0.125490887568176
789,0.125490887568175
790,0.131247350300661
791,0.133549935393655
792,0.135852520486648
793,0.135852520486648
794,0.138155105579643
795,0.138155105579643
796,0.134701227940152
797,0.137003813033146
798,0.141608983219134
799,0.140457690672637
800,0.140457690672637
