Wavelength,Abs
200,24.3214388166071
201,23.9142650039787
202,23.1267809021747
203,22.3868835666346
204,21.6792224223964
205,20.9838417243122
206,20.3583060997069
207,19.7769033637259
208,19.2062460325208
209,18.6662898282137
210,18.1585698152085
211,17.6711892961828
212,17.207602171802
213,16.7727973380577
214,16.3449002826182
215,15.9335050716613
216,15.5416818570208
217,15.1748032835198
218,14.8205889510562
219,14.469828496232
220,14.1378724709834
221,13.8277910041183
222,13.541502931898
223,13.2759381255146
224,13.0172810513844
225,12.7716719901489
226,12.5337381818556
227,12.3084686145997
228,12.0997008918263
229,11.8809553079918
230,11.6668148943434
231,11.4657224705639
232,11.2723053227524
233,11.0758180691588
234,10.8824009213473
235,10.7062531617333
236,10.5366293855408
237,10.3742971364847
238,10.2173375783036
239,10.065366962166
240,9.92721185658638
241,9.79289440050368
242,9.6674035129355
243,9.54958790133536
244,9.4348424185431
245,9.33160986121582
246,9.23835516494956
247,9.15124068024739
248,9.06604503180661
249,8.98890843119131
250,8.91100430988696
251,8.83386770927166
252,8.76133627884234
253,8.69187495419507
254,8.6254837583557
255,8.55678997742332
256,8.4880961734651
257,8.41364592980024
258,8.33996320682443
259,8.26704800453767
260,8.18722506999778
261,8.10433200664999
262,8.01798506566272
263,7.93278941722194
264,7.84567493251976
265,7.75011765116051
266,7.65110649216177
267,7.55478169011346
268,7.44924654769319
269,7.34064127646502
270,7.23548988287634
271,7.12227946448803
272,7.00945279493132
273,6.90046375184571
274,6.78188061955651
275,6.66598384421776
276,6.55699482415799
277,6.44071427696179
278,6.32097985212611
279,6.19664025710443
280,6.07383570346084
281,5.95410127862515
282,5.83168051986487
283,5.71117855131428
284,5.59489800411808
285,5.48399017082277
286,5.37193102195511
287,5.2602556449449
288,5.14551016215264
289,5.03421853397403
290,4.92791587086471
291,4.82353199796508
292,4.7179968555448
293,4.62128828163905
294,4.52496347959075
295,4.43132501146704
296,4.33346514501479
297,4.24519939079197
298,4.16077126304024
299,4.07327302950647
300,3.99229877939423
301,3.91516217877893
302,3.83994441442502
303,3.76511039890271
304,3.68989261152296
305,3.61851247364014
306,3.54252716557134
307,3.47306584092407
308,3.40744216577374
309,3.34258603433831
310,3.28195127820556
311,3.2274567796886
312,3.16912460864885
313,3.10964116808846
314,3.0543791258566
315,3.00065214802869
316,2.94922773226792
317,2.89550075444001
318,2.84561140308319
319,2.79725711613032
320,2.74660024408445
321,2.69786220829997
322,2.6483566288006
323,2.60230492694072
324,2.55932333086288
325,2.51595798595344
326,2.47067380478261
327,2.42730845987317
328,2.39085084721687
329,2.34786927416488
330,2.30565519877609
331,2.26612750336359
332,2.22813484932919
333,2.19167723667288
334,2.15368458263848
335,2.11914580624357
336,2.08153692406662
337,2.04431179072126
338,2.00938926549475
339,1.97676930233539
340,1.94376559034442
341,1.91229691973155
342,1.87660685079015
343,1.84053300999129
344,1.80791306985778
345,1.77721191993395
346,1.74804585743993
347,1.71657718682706
348,1.68856239385368
349,1.66054762390616
350,1.63176531024373
351,1.6064368742208
352,1.57803830938997
353,1.55270987336703
354,1.52431133156206
355,1.49821537485008
356,1.47595704460918
357,1.45177990113275
358,1.42530017256331
359,1.40112302908688
360,1.38039976324993
361,1.35699014046254
362,1.32935911934661
363,1.30863585350967
364,1.28983142393411
365,1.26373544419628
366,1.23725571562685
367,1.2165324497899
368,1.19811176904595
369,1.17508591811601
370,1.15513019599396
371,1.13594197153511
372,1.11598624941306
373,1.09603050426517
374,1.07760982352121
375,1.05688655768427
376,1.03961716948681
377,1.02119648874286
378,1.00315957985636
379,0.986273940490499
380,0.970155844839541
381,0.953654000356984
382,0.939070946084121
383,0.922952850433163
384,0.907218526639654
385,0.890332910299648
386,0.87421481464869
387,0.858864239686779
388,0.842746144035821
389,0.82739556907391
390,0.815498894777341
391,0.802067133050976
392,0.78901916620791
393,0.772901070556952
394,0.758701788141538
395,0.744118756894526
396,0.732222059572107
397,0.71917406970319
398,0.706126102860124
399,0.695380698084202
400,0.684635293308279
401,0.673889911558208
402,0.662376986093237
403,0.650096516913369
404,0.637048550070303
405,0.628221958529925
406,0.618627869326351
407,0.60711494386138
408,0.598288352321003
409,0.587926719402529
410,0.577181337652458
411,0.567970997280482
412,0.558760656908505
413,0.550701609083026
414,0.542258789400098
415,0.531129635792577
416,0.521151751705702
417,0.516546581519714
418,0.506184948601241
419,0.498125900775762
420,0.492369438043276
421,0.483926641386199
422,0.476251342392318
423,0.472413715921229
424,0.465122188784797
425,0.457446912816767
426,0.450539157537785
427,0.443631402258803
428,0.436723646979821
429,0.431350933078934
430,0.423675657110904
431,0.41753542252097
432,0.409476374695491
433,0.401033578038413
434,0.397963449230521
435,0.394125822759431
436,0.387218067480449
437,0.381077832890515
438,0.376088890847077
439,0.373018785065035
440,0.368797386736497
441,0.364959737239556
442,0.359203274507071
443,0.354598104321083
444,0.349992934135095
445,0.345771535806556
446,0.341166365620568
447,0.337712487981077
448,0.331956025248592
449,0.327350855062604
450,0.323513205565663
451,0.317372970975729
452,0.313919093336238
453,0.310848987554196
454,0.307778881772154
455,0.302789939728717
456,0.301254875324771
457,0.298568541400178
458,0.291660786121196
459,0.287823136624256
460,0.285520551531262
461,0.282834194580818
462,0.278996568109729
463,0.273240105377244
464,0.270169976569351
465,0.267483642644759
466,0.261343408054824
467,0.258273302272782
468,0.254435652775842
469,0.250214254447303
470,0.24752789749686
471,0.245225312403866
472,0.240620142217878
473,0.237933785267434
474,0.237166264578387
475,0.232944866249848
476,0.231409801845902
477,0.230642281156854
478,0.227188403517363
479,0.222583233331375
480,0.219896876380931
481,0.218745583834434
482,0.214907934337494
483,0.2126053492445
484,0.211837828555452
485,0.209535243462458
486,0.208000179058512
487,0.20493007327647
488,0.203395008872524
489,0.199557382401434
490,0.199557382401434
491,0.199557382401434
492,0.195719732904494
493,0.189579498314559
494,0.188811977625512
495,0.186125620675069
496,0.184590579296973
497,0.184206807439524
498,0.182671743035577
499,0.178834116564488
500,0.177682824017991
501,0.175380238924997
502,0.171542589428056
503,0.17000752502411
504,0.167704939931116
505,0.166937419242068
506,0.165786126695572
507,0.16233224905608
508,0.16233224905608
509,0.16233224905608
510,0.160029663963086
511,0.158878371416589
512,0.156575786323595
513,0.155424493777098
514,0.154273201230601
515,0.152738136826655
516,0.151970616137607
517,0.149668031044613
518,0.147365445951619
519,0.147365445951619
520,0.145446632716074
521,0.142376503908182
522,0.140457690672637
523,0.139690169983589
524,0.139690169983589
525,0.138538877437092
526,0.137003813033146
527,0.138155105579643
528,0.134701227940152
529,0.133166163536205
530,0.130863578443211
531,0.130863578443211
532,0.130096057754164
533,0.128944765207667
534,0.128177244518619
535,0.125874659425625
536,0.125107115710726
537,0.120885717382187
538,0.11973442483569
539,0.11973442483569
540,0.115129254649702
541,0.114361733960655
542,0.114361733960655
543,0.112826669556708
544,0.112826669556708
545,0.110524084463714
546,0.10822149937072
547,0.10822149937072
548,0.10822149937072
549,0.107070206824223
550,0.107070206824223
551,0.105918914277726
552,0.104767621731229
553,0.102465036638235
554,0.102465036638235
555,0.104767621731229
556,0.102465036638235
557,0.100162451545241
558,0.102465036638235
559,0.100162451545241
560,0.097859866452247
561,0.0993949308561933
562,0.0955572813592529
563,0.0944059888127559
564,0.0944059888127559
565,0.0932546962662589
566,0.0932546962662589
567,0.0928709244088095
568,0.0917196318623125
569,0.0921034037197618
570,0.0913358830307141
571,0.0913358830307141
572,0.0898008186267678
573,0.0882657542228214
574,0.0874982335337737
575,0.0863469409872767
576,0.084428127751732
577,0.0840443558942827
578,0.084428127751732
579,0.0809742501122407
580,0.0828930633477857
581,0.0825092914903363
582,0.0805904782547916
583,0.0805904782547916
584,0.0798229575657439
585,0.0802067063973425
586,0.0771366006153005
587,0.0771366006153008
588,0.0771366006153005
589,0.0798229575657439
590,0.0740664948332588
591,0.0725314304293124
592,0.0736827229758095
593,0.0748340155223065
594,0.0729152022867618
595,0.0752177873797558
596,0.0759853080688035
597,0.0729152022867618
598,0.0713801378828154
599,0.0690775527898214
600,0.0702288453363184
601,0.0702288453363184
602,0.0706126171937677
603,0.0702288453363184
604,0.0690775527898214
605,0.0686937809323721
606,0.0663911958393778
607,0.0679262602433241
608,0.0690775527898214
609,0.0683100321007737
610,0.067542488385875
611,0.0683100321007737
612,0.0683100321007737
613,0.0683100321007737
614,0.0679262602433243
615,0.0667749676968273
616,0.0660074470077796
617,0.0656236751503303
618,0.0656236751503303
619,0.0660074470077796
620,0.0637048619147853
621,0.0629373181998869
622,0.0614022768217915
623,0.0598672124178454
624,0.0587159198713482
625,0.0587159198713482
626,0.0594834405603956
627,0.0606347331068929
628,0.0606347331068929
629,0.0625535693682885
630,0.0629373181998869
631,0.0621697975108392
632,0.0621697975108392
633,0.064088610746384
634,0.0617860256533899
635,0.0617860256533899
636,0.0606347331068929
637,0.0598672124178452
638,0.0598672124178452
639,0.0590996917287973
640,0.0598672124178452
641,0.0594834405603959
642,0.0594834405603959
643,0.0567971066358034
644,0.0571808554674018
645,0.0556458140893064
646,0.0548782703744078
647,0.0533432289963124
648,0.0548782703744078
649,0.0548782703744078
650,0.0537269778279108
651,0.0514243927349167
652,0.049505579499372
653,0.0525756852814137
654,0.0529594571388631
655,0.0541107496853601
656,0.0514243927349167
657,0.051808164592366
658,0.048354286952875
659,0.051808164592366
660,0.0502731001884197
661,0.050656872045869
662,0.0529594571388631
663,0.0502731001884197
664,0.0514243927349167
665,0.0502731001884197
666,0.0456679300024316
667,0.0456679300024316
668,0.0456679300024316
669,0.0456679300024316
670,0.0456679300024316
671,0.0445166374559346
672,0.0441328886243362
673,0.0464354737173302
674,0.0429815960778392
675,0.0460517018598809
676,0.0468192225489288
677,0.0445166374559346
678,0.0445166374559346
679,0.0441328886243362
680,0.0422140523629405
681,0.0445166374559346
682,0.0449004093133839
683,0.0445166374559346
684,0.0425978242203899
685,0.0456679300024316
686,0.0429815960778392
687,0.0429815960778392
688,0.0445166374559346
689,0.0410627598164435
690,0.0437491167668869
691,0.0418303035313421
692,0.0429815960778392
693,0.0418303035313421
694,0.0418303035313421
695,0.0414465316738928
696,0.0410627598164435
697,0.0406790109848451
698,0.0406790109848451
699,0.0406790109848451
700,0.0414465316738928
701,0.0449004093133839
702,0.0418303035313421
703,0.0406790109848451
704,0.0414465316738928
705,0.0410627598164435
706,0.0410627598164433
707,0.0406790109848451
708,0.0406790109848451
709,0.0418303035313419
710,0.0402952391273958
711,0.0406790109848451
712,0.0425978242203899
713,0.0433653449094376
714,0.0410627598164437
715,0.0422140523629408
716,0.0437491167668869
717,0.0429815960778392
718,0.0395277184383479
719,0.0379926540344018
720,0.0379926540344018
721,0.0425978242203899
722,0.0433653449094376
723,0.0414465316738928
724,0.0399114672699465
725,0.0406790109848451
726,0.0425978242203896
727,0.0429815960778392
728,0.0433653449094376
729,0.0437491167668869
730,0.0437491167668869
731,0.0449004093133841
732,0.0425978242203896
733,0.0437491167668871
734,0.0418303035313419
735,0.0372251333453538
736,0.0353062970839584
737,0.0345387763949107
738,0.0353062970839584
739,0.033771255705863
740,0.0310848987554194
741,0.0307011268979701
742,0.0322361913019162
743,0.0333874838484139
744,0.03492254825236
745,0.0307011268979701
746,0.0318524194444671
747,0.0326199631593662
748,0.0287823136624256
749,0.0283985418049763
750,0.0287823136624256
751,0.0303173780663724
752,0.0299336062089226
753,0.0314686706128687
754,0.0330037119909639
755,0.0322361913019162
756,0.033771255705863
757,0.033771255705863
758,0.0330037119909639
759,0.0314686706128687
760,0.0318524194444671
761,0.0330037119909646
762,0.0314686706128687
763,0.0310848987554194
764,0.0314686706128687
765,0.0299336062089226
766,0.0295498343514733
767,0.0299336062089226
768,0.0307011268979701
769,0.0257122078803843
770,0.0272472492584795
771,0.0283985418049763
772,0.0291660855198749
773,0.0299336062089226
774,0.0291660855198749
775,0.0318524194444671
776,0.0310848987554201
777,0.0322361913019169
778,0.0314686706128687
779,0.0310848987554194
780,0.0307011268979701
781,0.0287823136624256
782,0.0326199631593662
783,0.0303173780663717
784,0.0299336062089226
785,0.0314686706128694
786,0.0268635004268811
787,0.0299336062089226
788,0.0314686706128687
789,0.0314686706128694
790,0.0310848987554201
791,0.0307011268979701
792,0.0299336062089226
793,0.0307011268979701
794,0.0287823136624256
795,0.0307011268979701
796,0.0310848987554201
797,0.0303173780663717
798,0.0287823136624256
799,0.0291660855198749
800,0.0276310211159288
