Wavelength,Abs
200,8.44281199229427
201,8.20718079211983
202,7.76047928407898
203,7.35522430771203
204,6.98834575723693
205,6.6506332922817
206,6.35283227157057
207,6.08803498587626
208,5.84012331652195
209,5.61139987162649
210,5.40493473394607
211,5.21919288512845
212,5.048034044532
213,4.88762063173731
214,4.7371850569778
215,4.59826243070911
216,4.4654800160045
217,4.34190794167187
218,4.22524364564407
219,4.11318451980226
220,4.01263829639957
221,3.91516217877893
222,3.82305879808502
223,3.73939819102233
224,3.65727264836359
225,3.5774497138237
226,3.50299944713299
227,3.43008426787208
228,3.36330930017525
229,3.29039409788849
230,3.22515417156976
231,3.15837922689878
232,3.09544188567305
233,3.03096950306921
234,2.97186983436627
235,2.91584027144536
236,2.8598106854986
237,2.80915381345274
238,2.76079952649986
239,2.71705040973297
240,2.67330129296609
241,2.63492486707424
242,2.59885104930123
243,2.56431227290632
244,2.5336111229825
245,2.50521258117752
246,2.47834908075064
247,2.45225312403866
248,2.42999479379777
249,2.40466638080068
250,2.38471063565278
251,2.36552241119393
252,2.34633420976093
253,2.32484342323494
254,2.30795778386908
255,2.28953712615098
256,2.26804631659913
257,2.25116067723328
258,2.23043743442218
259,2.21355179505633
260,2.19513111431237
261,2.17210526338243
262,2.15214954126039
263,2.13065875473439
264,2.1076328807786
265,2.08230444475566
266,2.05927859382572
267,2.03702026358483
268,2.0101567861838
269,1.98252576506787
270,1.95642980835589
271,1.92879876421411
272,1.90040022240914
273,1.87353674500811
274,1.84437065948823
275,1.81520459699421
276,1.78834109656733
277,1.75610490526541
278,1.72617129905649
279,1.69623766982171
280,1.6624664371417
281,1.62946272515074
282,1.60029663963086
283,1.56882799204384
284,1.53582425702703
285,1.50512310710321
286,1.47595704460918
287,1.44679098211516
288,1.42069500237733
289,1.38769126736051
290,1.36082778995948
291,1.3347318332475
292,1.30940339722456
293,1.28714506698367
294,1.25874650215284
295,1.2357206512229
296,1.21422986469691
297,1.19273907817092
298,1.17048074793002
299,1.15129254649702
300,1.13056928066008
301,1.10984601482313
302,1.09065781339013
303,1.07607475911727
304,1.05842162208821
305,1.04000094134426
306,1.02465036638235
307,1.00853227073139
308,0.99394923948438
309,0.978598664522469
310,0.964015633275458
311,0.950200122717493
312,0.934849547755582
313,0.920266516508571
314,0.906451005950606
315,0.891867951677743
316,0.878819984834678
317,0.865771994965761
318,0.852724005096845
319,0.838140973849833
320,0.827395592099761
321,0.815115122919892
322,0.803602197454922
323,0.791321728275053
324,0.779041282121035
325,0.771366006153005
326,0.760620601377083
327,0.747572611508166
328,0.736827229758095
329,0.727616889386119
330,0.716103963921148
331,0.706126102860124
332,0.697683283177196
333,0.689240463494267
334,0.682332708215285
335,0.674657432247255
336,0.665447091875279
337,0.656236751503303
338,0.646258890442279
339,0.637816070759351
340,0.632443379884315
341,0.627838186672476
342,0.619395390015398
343,0.611720091021518
344,0.604044815053488
345,0.597137082800356
346,0.589461783806476
347,0.582554028527494
348,0.577181337652458
349,0.570273582373476
350,0.56490089149844
351,0.555690528100613
352,0.548782772821631
353,0.544177602635642
354,0.536502326667613
355,0.529594571388631
356,0.524221880513595
357,0.51808164592366
358,0.513476475737672
359,0.50656872045869
360,0.499660965179708
361,0.493520730589773
362,0.485845454621744
363,0.478937699342761
364,0.473565008467726
365,0.466657253188744
366,0.461284539287857
367,0.456679369101869
368,0.449004093133839
369,0.443631402258803
370,0.439026209046964
371,0.432118476793833
372,0.425210721514851
373,0.419070486924916
374,0.412930275360833
375,0.406790017745047
376,0.404487455677904
377,0.400649806180964
378,0.392974507187083
379,0.388369337001095
380,0.381461581722113
381,0.375321370158029
382,0.369948679282994
383,0.364575965382107
384,0.359203274507071
385,0.352295519228089
386,0.346922828353053
387,0.343085178856113
388,0.338480008670125
389,0.33233977408019
390,0.329269668298149
391,0.321594369304268
392,0.320059327926172
393,0.314686637051137
394,0.30931392315025
395,0.306243817368208
396,0.302406190897119
397,0.297033476996232
398,0.291660786121196
399,0.289358201028202
400,0.283985487127315
401,0.27861279625228
402,0.276310211159286
403,0.273240105377244
404,0.268634935191256
405,0.265564806383363
406,0.263262221290369
407,0.259424594819279
408,0.256354466011387
409,0.252516816514446
410,0.249446710732405
411,0.244841540546417
412,0.243306499168321
413,0.239468849671381
414,0.235631223200291
415,0.233328638107297
416,0.230258509299405
417,0.227188403517363
418,0.22411827470947
419,0.219513104523482
420,0.217210519430488
421,0.214907934337494
422,0.2126053492445
423,0.209535243462458
424,0.209535243462458
425,0.206465137680416
426,0.203395031898375
427,0.201859967494429
428,0.198022317997488
429,0.194952212215446
430,0.191882106433404
431,0.190347042029458
432,0.189579498314559
433,0.187276913221565
434,0.182671743035577
435,0.179601637253536
436,0.179601637253536
437,0.177299052160542
438,0.1742289463785
439,0.172693881974553
440,0.168088711788565
441,0.166553647384619
442,0.165018606006524
443,0.164251085317476
444,0.161180956509583
445,0.158110850727541
446,0.157343307012643
447,0.1550407449455
448,0.151203095448559
449,0.150435551733661
450,0.149668031044613
451,0.146597925262571
452,0.145062860858625
453,0.142760275765631
454,0.141992732050732
455,0.141992755076583
456,0.140457690672637
457,0.138155105579643
458,0.138155105579643
459,0.137387584890595
460,0.135084999797601
461,0.132782414704607
462,0.131247350300661
463,0.128944765207667
464,0.128177221492768
465,0.128944765207667
466,0.12740970080372
467,0.128177221492768
468,0.126642180114673
469,0.125107138736577
470,0.125107115710726
471,0.124339595021678
472,0.122037009928684
473,0.120501945524738
474,0.120501945524738
475,0.120501945524738
476,0.120501945524738
477,0.11973442483569
478,0.116664319053649
479,0.11589677533875
480,0.116664319053649
481,0.115129254649702
482,0.114361733960655
483,0.114361733960655
484,0.110524084463714
485,0.111291605152762
486,0.111291605152762
487,0.110524084463714
488,0.109756563774666
489,0.10822149937072
490,0.10822149937072
491,0.106686434966774
492,0.10438384987378
493,0.10438384987378
494,0.103616329184732
495,0.103616329184732
496,0.0997786796877917
497,0.0990111589987442
498,0.0982436152838453
499,0.0974760945947979
500,0.0974760945947979
501,0.0967085739057499
502,0.0974760945947979
503,0.0959410532167025
504,0.0944059888127559
505,0.0936384450978573
506,0.0936384681237082
507,0.0928709244088095
508,0.0928709244088095
509,0.0913358830307141
510,0.0905683393158155
511,0.0913358830307141
512,0.0898008186267678
513,0.0898008186267678
514,0.0905683393158155
515,0.0882657542228214
516,0.0898008186267678
517,0.0898008186267678
518,0.086730712844726
519,0.086730712844726
520,0.0859631691298276
521,0.0859631691298276
522,0.0859631691298276
523,0.0828930633477859
524,0.0828930633477859
525,0.0836605840368334
526,0.0813580219696905
527,0.0813579989438393
528,0.0798229575657439
529,0.0790554368766962
530,0.0798229575657439
531,0.0775203724727498
532,0.0775203724727498
533,0.0775203724727498
534,0.0775203724727498
535,0.0759853080688035
536,0.0744502436648572
537,0.0729151792609108
538,0.0729152022867618
539,0.06984509650472
540,0.0706125941679168
541,0.0713801378828154
542,0.0713801378828154
543,0.0706125941679168
544,0.0683100321007737
545,0.0690775527898214
546,0.0683100090749227
547,0.0683100090749227
548,0.0683100090749227
549,0.0667749676968273
550,0.0667749676968273
551,0.067542488385875
552,0.0683100321007739
553,0.0683100321007739
554,0.0660074470077796
555,0.0652399263187319
556,0.0660074239819287
557,0.0644723826038333
558,0.0644723826038333
559,0.0637048619147856
560,0.0644723826038333
561,0.0644723826038333
562,0.0637048619147856
563,0.0629373181998869
564,0.0629373181998869
565,0.062169797510839
566,0.0629373412257379
567,0.0629373412257379
568,0.0614022768217915
569,0.0606347561327438
570,0.05833217103975
571,0.05833217103975
572,0.0583321480138991
573,0.0575646273248511
574,0.0575646273248511
575,0.0598672124178452
576,0.0583321710397498
577,0.0575646273248511
578,0.0575646273248511
579,0.0575646273248511
580,0.0583321480138991
581,0.0583321480138989
582,0.0560295859467557
583,0.0567971066358034
584,0.0583321480138989
585,0.0560295859467557
586,0.0560295629209048
587,0.0575646273248511
588,0.0560295629209048
589,0.0567971066358037
590,0.0544944985169585
591,0.0537269778279108
592,0.0537270008537617
593,0.0544944985169585
594,0.0537270008537617
595,0.0575646273248511
596,0.0521919364498153
597,0.0529594571388631
598,0.0529594571388631
599,0.0521919364498153
600,0.0521919134239644
601,0.0514243927349167
602,0.0498893283309704
603,0.048354286952875
604,0.0475867432379763
605,0.0475867432379761
606,0.0468192225489286
607,0.0468192225489286
608,0.0468192225489286
609,0.0475867662638273
610,0.0468192225489286
611,0.0452841581449825
612,0.0460517018598809
613,0.0475867432379763
614,0.0475867432379763
615,0.0468192225489288
616,0.0468192225489288
617,0.0460517018598809
618,0.0460517018598809
619,0.0460517018598809
620,0.048354286952875
621,0.0491218076419224
622,0.0491218076419227
623,0.0491218076419227
624,0.048354286952875
625,0.047586766263827
626,0.0468192455747795
627,0.0429815960778392
628,0.0399114902957974
629,0.0406790109848451
630,0.0414465316738928
631,0.0414465316738928
632,0.0406790109848454
633,0.0399114902957974
634,0.0414465316738928
635,0.0406790109848451
636,0.0406790109848451
637,0.0445166374559346
638,0.0452841581449823
639,0.0429815960778392
640,0.0452841811708334
641,0.0460517018598809
642,0.0452841581449825
643,0.0468192225489286
644,0.0475867432379763
645,0.0475867432379763
646,0.0460517018598809
647,0.048354286952875
648,0.0491218076419224
649,0.0468192455747795
650,0.048354286952875
651,0.0475867432379763
652,0.0491218306677736
653,0.0475867662638273
654,0.0468192225489288
655,0.048354286952875
656,0.048354286952875
657,0.0468192225489288
658,0.0475867432379763
659,0.0468192225489286
660,0.0452841811708332
661,0.0437491167668869
662,0.0429815730519882
663,0.0445166604817855
664,0.0437491167668869
665,0.0414465316738928
666,0.0406789879589942
667,0.0414465316738928
668,0.0376088821769524
669,0.0376088821769524
670,0.0406790109848451
671,0.0414465316738928
672,0.0414465316738928
673,0.0422140523629405
674,0.0414465316738928
675,0.0437491167668869
676,0.0445166374559346
677,0.0445166374559346
678,0.0429815730519882
679,0.0422140753887917
680,0.0429815960778392
681,0.0437491167668869
682,0.0452841581449823
683,0.0437491167668869
684,0.0437491167668869
685,0.0437491167668869
686,0.0422140523629405
687,0.0437491167668869
688,0.0452841581449823
689,0.0452841811708334
690,0.0460517018598807
691,0.0452841811708332
692,0.0445166374559346
693,0.0468192455747795
694,0.0445166374559346
695,0.0452841811708334
696,0.0445166604817855
697,0.0437491167668869
698,0.0429815960778392
699,0.0429815730519882
700,0.0445166374559346
701,0.0452841811708334
702,0.0429815960778392
703,0.0422140753887915
704,0.0429815960778392
705,0.0414465316738928
706,0.0429815730519882
707,0.0445166374559346
708,0.0429815730519885
709,0.0437491167668869
710,0.0445166604817853
711,0.0422140753887912
712,0.0422140753887912
713,0.0429815730519882
714,0.0429815730519882
715,0.0399114672699465
716,0.0399114902957974
717,0.0406790109848451
718,0.0414465316738931
719,0.0399114672699463
720,0.0368413614879047
721,0.0368413614879045
722,0.0360738177730063
723,0.0322361913019166
724,0.0353062970839584
725,0.033771255705863
726,0.0299336062089228
727,0.0291660855198749
728,0.0299336062089226
729,0.0307011268979705
730,0.031468647587018
731,0.030701149923821
732,0.028398564830827
733,0.0268635004268811
734,0.0237933716189882
735,0.0230258509299405
736,0.0230258509299405
737,0.0253284360229343
738,0.0268635004268811
739,0.025328436022935
740,0.0245608923080356
741,0.0230258509299405
742,0.0237933946448391
743,0.025328436022935
744,0.0237933716189889
745,0.0260959797378334
746,0.0260959797378329
747,0.0245609153338873
748,0.0268634774010301
749,0.0291660855198749
750,0.0314686475870178
751,0.0314686706128694
752,0.0337712326800116
753,0.0345387763949107
754,0.0376088821769527
755,0.0399114672699465
756,0.0391439465808983
757,0.0406790109848451
758,0.0429815730519887
759,0.0429815960778396
760,0.0445166604817857
761,0.0422140753887912
762,0.0422140753887912
763,0.0445166604817857
764,0.0414465316738928
765,0.039911467269946
766,0.0399114672699465
767,0.0422140753887919
768,0.0422140753887912
769,0.0460517018598802
770,0.0468192225489286
771,0.0483542869528747
772,0.047586766263827
773,0.0452841811708334
774,0.047586766263827
775,0.0491218076419231
776,0.0498893513568208
777,0.0498893513568215
778,0.0506568720458692
779,0.0529594571388631
780,0.0506568720458692
781,0.0529594571388631
782,0.0514243927349167
783,0.0506568720458692
784,0.0521919134239644
785,0.0521919364498153
786,0.0506568720458692
787,0.0521919364498153
788,0.0544945215428092
789,0.0552620422318569
790,0.056029562920905
791,0.056029562920905
792,0.0575646273248511
793,0.0575646273248511
794,0.0583321480138989
795,0.0575646273248511
796,0.0567971066358037
797,0.0590996917287973
798,0.0583321710397505
799,0.0598672124178456
800,0.0614022768217915
