Wavelength,Abs
200,52.3438993983446
201,52.0487847345839
202,51.2858615481138
203,50.3740378512882
204,49.5642954192433
205,48.7299920948904
206,47.7966775885129
207,46.9704333119855
208,46.1334436306822
209,45.264985278766
210,44.4433461724246
211,43.5798767625518
212,42.7847173847798
213,41.9784288303744
214,41.1529520745361
215,40.401541813531
216,39.6566555359474
217,38.9413190927153
218,38.2302040708376
219,37.5309857232564
220,36.8966235301366
221,36.2918111713682
222,35.7054195163696
223,35.155101679144
224,34.6232045226624
225,34.0928424075589
226,33.5793659318212
227,33.094671769746
228,32.6264794751791
229,32.1575196368974
230,31.6831871077406
231,31.2057844728018
232,30.7583154440719
233,30.2954958403801
234,29.8342112780664
235,29.404779158223
236,28.977265874641
237,28.5608817216407
238,28.1537079320382
239,27.7638035306332
240,27.3976925008471
241,27.043094396526
242,26.7088357861844
243,26.3845550599297
244,26.0763924063001
245,25.7920231473154
246,25.5299122185715
247,25.2808492566707
248,25.0429154714032
249,24.8176459041473
250,24.6008191335484
251,24.3947377677254
252,24.1955641571814
253,24.0040658226055
254,23.8233128928054
255,23.6379547928194
256,23.4472240019584
257,23.2538068541469
258,23.0596221856463
259,22.8639024527418
260,22.6589723794654
261,22.446367007195
262,22.227237674529
263,22.0100271320726
264,21.7939679051886
265,21.5579529331568
266,21.3192516041744
267,21.0878418023285
268,20.8449190750176
269,20.5889483808637
270,20.3410367115094
271,20.0850659943296
272,19.8271764639143
273,19.5815674026788
274,19.3194564509091
275,19.0592643354008
276,18.8136552741653
277,18.5477066959245
278,18.2821418665153
279,18.0096693048529
280,17.7310565086006
281,17.4616540527203
282,17.1880301985115
283,16.9140225724452
284,16.6473064504895
285,16.3982435116145
286,16.1372838523913
287,15.8705677534615
288,15.6046191752206
289,15.3451945804014
290,15.0899914069365
291,14.8397771524892
292,14.5953193838002
293,14.3619907456929
294,14.1336510726549
295,13.9118353600126
296,13.6896358985386
297,13.4754954848902
298,13.2697978909247
299,13.0633327532443
300,12.8633916220112
301,12.6680556609642
302,12.4754060338417
303,12.2862102843588
304,12.0973983067333
305,11.9085863291078
306,11.7228444802901
307,11.5474642413651
308,11.375154131248
309,11.206681647602
310,11.0439656266885
311,10.8881573840798
312,10.7246738424772
313,10.5585039439242
314,10.4003930931967
315,10.2461198919661
316,10.0941492758284
317,9.94755137359173
318,9.79941838392521
319,9.65128541728454
320,9.50545503573687
321,9.3600084030208
322,9.21839941980166
323,9.07794172912902
324,8.93594897405244
325,8.79817764033025
326,8.65618488525367
327,8.52378624240651
328,8.39676031346024
329,8.26704800453767
330,8.13963830373395
331,8.00954224597979
332,7.88558642281556
333,7.76393316171847
334,7.64227992364724
335,7.52024291371855
336,7.40127600957191
337,7.28653052677966
338,7.1717850439874
339,7.05627201748025
340,6.94344534792354
341,6.82908361396289
342,6.7105004816737
343,6.59844135583189
344,6.49444125478971
345,6.39235999000892
346,6.29334883101018
347,6.19587271338953
348,6.09801284693728
349,6.00245556557803
350,5.90229311403279
351,5.81249229540602
352,5.72269147677925
353,5.63212313746344
354,5.54078725443272
355,5.45482408530289
356,5.37193102195511
357,5.28635160165688
358,5.2007722043845
359,5.11826288986831
360,5.03997499670652
361,4.95746570521618
362,4.87303757746445
363,4.79551722801755
364,4.7191481480913
365,4.63318497896147
366,4.55067566444528
367,4.47852800587342
368,4.40561280358666
369,4.32962749551785
370,4.25978242203898
371,4.18916980484522
372,4.12469742224138
373,4.05024717857653
374,3.97963456138276
375,3.91209207299688
376,3.85030604734349
377,3.78967129121075
378,3.72635020115341
379,3.66341288295353
380,3.59970802103874
381,3.54175964488229
382,3.48419501755744
383,3.42509532582864
384,3.36791447036124
385,3.30881477863244
386,3.25508780080453
387,3.20212834366567
388,3.14379617262592
389,3.08699908901597
390,3.03826103020564
391,2.98645286561328
392,2.93502847287836
393,2.88283653642855
394,2.83179589252523
395,2.78037149979031
396,2.73623861116597
397,2.69172197371004
398,2.64643779253921
399,2.60422374017627
400,2.56354472919142
401,2.51826057104644
402,2.47451145427955
403,2.43076233751267
404,2.38701322074578
405,2.34748550230743
406,2.31026036896208
407,2.26804631659913
408,2.23082118325378
409,2.19436359362333
410,2.15598716773147
411,2.12144839133656
412,2.08614209425261
413,2.05428967480814
414,2.02128593979132
415,1.98789845594291
416,1.953359679548
417,1.92419361705397
418,1.89464375967665
419,1.86509392532518
420,1.8370791323518
421,1.80791306985778
422,1.77951450502695
423,1.75572113340796
424,1.72847388414948
425,1.70468048950464
426,1.67935205348171
427,1.65402361745877
428,1.62869518143584
429,1.60490180981685
430,1.58264347957596
431,1.55808258726792
432,1.53544048516958
433,1.51087959286154
434,1.4901563270246
435,1.47096810256575
436,1.4502448367288
437,1.42952157089185
438,1.40841455622331
439,1.39152891685745
440,1.3727244872819
441,1.35660639163094
442,1.33856945971859
443,1.32014877897464
444,1.30172809823068
445,1.28522625374813
446,1.26910815809717
447,1.25107122618481
448,1.23226679660926
449,1.21614870095831
450,1.20003060530735
451,1.18391250965639
452,1.16817816283703
453,1.15282761090097
454,1.139012100343
455,1.12481281792759
456,1.11253237177357
457,1.09986815376211
458,1.08298251439625
459,1.07146958893128
460,1.05611903699522
461,1.04268727526885
462,1.02887176471089
463,1.01390496160643
464,1.00239203614146
465,0.991262882533937
466,0.975912307572026
467,0.962096797014062
468,0.948281286456098
469,0.93561706844463
470,0.926790499930104
471,0.916045095154181
472,0.904532169689211
473,0.892635495392642
474,0.88189009061672
475,0.870760937009199
476,0.861550596637222
477,0.853107776954294
478,0.842746144035821
479,0.831233218570851
480,0.820871585652377
481,0.814347602230844
482,0.805137261858868
483,0.79669444217594
484,0.788251622493011
485,0.779041282121035
486,0.770598485463958
487,0.763690730184975
488,0.754480389812999
489,0.745270049441023
490,0.739129814851089
491,0.732222059572107
492,0.722244198511083
493,0.71149879373516
494,0.704591038456178
495,0.697299511319746
496,0.688856714662669
497,0.683100251930184
498,0.675424952936303
499,0.666982156279226
500,0.660458149831842
501,0.654317938267758
502,0.646642639273877
503,0.639734883994895
504,0.632827128715913
505,0.62668691715183
506,0.620930454419345
507,0.614406447971961
508,0.608266236407877
509,0.602893522506991
510,0.595218246538961
511,0.590229304495523
512,0.584856613620488
513,0.577565086484056
514,0.571041103062523
515,0.564900868472589
516,0.557993113193607
517,0.554923007411565
518,0.548015252132583
519,0.542642561257547
520,0.538421139903157
521,0.529210799531181
522,0.524989401202642
523,0.519616710327607
524,0.515779060830666
525,0.509255077409133
526,0.503882363508247
527,0.499660965179708
528,0.492369438043276
529,0.489299332261235
530,0.4831590976713
531,0.478553927485312
532,0.473181236610276
533,0.467424773877791
534,0.463587124380851
535,0.458214433505815
536,0.454376784008875
537,0.447085279898294
538,0.442096337854857
539,0.437491167668869
540,0.433653518171928
541,0.42904834798594
542,0.424443177799952
543,0.422140592706958
544,0.418302966235869
545,0.412930252334982
546,0.407557561459946
547,0.403719911963006
548,0.401417326870012
549,0.397963449230521
550,0.394125822759431
551,0.39067194511994
552,0.387218067480449
553,0.383380417983509
554,0.379542768486568
555,0.377240183393574
556,0.373402556922485
557,0.369564907425544
558,0.36726232233255
559,0.364959737239556
560,0.35958704636452
561,0.357284461271526
562,0.35191174737064
563,0.347690349042101
564,0.346155284638155
565,0.342701406998663
566,0.341166365620568
567,0.336944944266178
568,0.335793651719681
569,0.330804732702095
570,0.328502147609101
571,0.326967083205154
572,0.32466449811216
573,0.321594392330119
574,0.317756742833178
575,0.316605450286681
576,0.311616508243244
577,0.309697695007699
578,0.306243817368208
579,0.302022419039669
580,0.300871126493172
581,0.298952290231777
582,0.295498412592286
583,0.291660786121196
584,0.29012572171725
585,0.288974429170753
586,0.283601738295717
587,0.281299153202723
588,0.280531609487824
589,0.277077731848333
590,0.272088812830747
591,0.269786227737753
592,0.268634935191256
593,0.26671609892986
594,0.264029765005268
595,0.262494700601321
596,0.261727179912274
597,0.258657051104381
598,0.255586945322339
599,0.253284360229345
600,0.252133067682848
601,0.249830482589854
602,0.247144125639411
603,0.245225312403866
604,0.246376604950363
605,0.241387662906925
606,0.238317557124884
607,0.236782492720937
608,0.233328615081446
609,0.229490988610357
610,0.229490988610357
611,0.229490988610357
612,0.227188403517363
613,0.227188403517363
614,0.225269567255967
615,0.22411827470947
616,0.221048168927428
617,0.219896876380931
618,0.219896876380931
619,0.218745583834434
620,0.214140413648446
621,0.2126053492445
622,0.211070307866405
623,0.205697593965518
624,0.203778780729973
625,0.203778780729973
626,0.204546301419021
627,0.203395008872524
628,0.201859967494428
629,0.201476195636979
630,0.201859967494429
631,0.199557382401434
632,0.198789838686536
633,0.199173610543985
634,0.193033375954051
635,0.192265855265003
636,0.191882083407554
637,0.188811977625512
638,0.188044456936464
639,0.18574187184347
640,0.184206807439524
641,0.18152045048908
642,0.18152045048908
643,0.178834116564488
644,0.177682824017991
645,0.175380238924997
646,0.173077653832003
647,0.17000752502411
648,0.17000752502411
649,0.169240004335062
650,0.168088711788565
651,0.165786126695571
652,0.16233224905608
653,0.161564728367033
654,0.161948477198631
655,0.16233224905608
656,0.159645892105637
657,0.159262143274038
658,0.154273201230601
659,0.15465697308805
660,0.15465697308805
661,0.152738136826655
662,0.151203095448559
663,0.151586844280158
664,0.151970616137607
665,0.15081932359111
666,0.146214153405122
667,0.142376503908182
668,0.140841462530086
669,0.140841462530086
670,0.142376503908182
671,0.141225211361685
672,0.13930639812614
673,0.13930639812614
674,0.136620041175697
675,0.136620041175697
676,0.136620041175697
677,0.133549935393655
678,0.134317456082702
679,0.133166163536205
680,0.130479829611613
681,0.130479829611613
682,0.129328537065116
683,0.12740970080372
684,0.125490887568175
685,0.12779347266117
686,0.126642180114673
687,0.125107115710726
688,0.125107115710726
689,0.123188302475181
690,0.125107115710726
691,0.120885717382187
692,0.121269489239637
693,0.120885717382187
694,0.119350652978241
695,0.118966904146643
696,0.118583132289193
697,0.115129254649702
698,0.115129254649702
699,0.113594190245756
700,0.115129254649702
701,0.113977962103205
702,0.109372791917217
703,0.10822149937072
704,0.110524084463714
705,0.110140312606265
706,0.110140312606265
707,0.108989020059768
708,0.10822149937072
709,0.105535142420277
710,0.103232557327283
711,0.105151393588678
712,0.105535142420277
713,0.105535142420277
714,0.102465036638235
715,0.105151393588679
716,0.10438384987378
717,0.10438384987378
718,0.100929972234288
719,0.100929972234289
720,0.100162451545241
721,0.100929972234289
722,0.100929972234289
723,0.0997786796877914
724,0.0982436383096963
725,0.0997786796877914
726,0.0986273871412947
727,0.0974760945947979
728,0.0970923457631995
729,0.0974760945947979
730,0.0974760945947974
731,0.0993949308561933
732,0.0970923457631995
733,0.0967085739057502
734,0.0932546962662589
735,0.0871144616763244
736,0.0828930633477854
737,0.0813579989438393
738,0.0805904782547916
739,0.076752828757851
740,0.0756015362113542
741,0.0775203724727503
742,0.0782878931617973
743,0.0786716650192471
744,0.077904121304348
745,0.0744502436648572
746,0.0756015362113542
747,0.0756015362113542
748,0.0725314304293122
749,0.0713801378828152
750,0.0717639097402652
751,0.0748340155223065
752,0.073682722975809
753,0.073682722975809
754,0.073682722975809
755,0.0721476585718629
756,0.0752177873797558
757,0.0721476585718629
758,0.0721476585718629
759,0.0698450734788691
760,0.0709963660253659
761,0.0752177873797558
762,0.073682722975809
763,0.0725314304293122
764,0.0721476585718629
765,0.0706126171937677
766,0.0702288453363184
767,0.0706126171937677
768,0.0698450734788691
769,0.0671587395542769
770,0.0663911958393785
771,0.0667749676968276
772,0.0675424883858753
773,0.0652399032928808
774,0.0683100321007732
775,0.0725314304293122
776,0.0709963660253666
777,0.0683100321007739
778,0.0675424883858746
779,0.0686937809323716
780,0.0683100321007732
781,0.0671587395542762
782,0.0702288453363184
783,0.0702288453363184
784,0.0690775527898214
785,0.0683100321007739
786,0.0644723826038333
787,0.0667749676968276
788,0.0683100321007739
789,0.0683100321007739
790,0.0679262602433246
791,0.0667749676968271
792,0.0667749676968271
793,0.0683100321007739
794,0.0656236751503301
795,0.0660074470077794
796,0.0671587395542769
797,0.0656236751503301
798,0.064088610746384
799,0.0637048619147856
800,0.0621697975108395
