Wavelength,Abs
200,10.1578541377432
201,9.96904216011772
202,9.6083038212067
203,9.27097510508307
204,8.94822944323231
205,8.63392657803862
206,8.35493000992889
207,8.09358660187407
208,7.84145353419122
209,7.60390349775539
210,7.38132028744986
211,7.1740876290804
212,6.98374058705094
213,6.8052902423439
214,6.63643400986629
215,6.4775556384497
216,6.32903889995158
217,6.19433767201143
218,6.06577665563536
219,5.94066953992464
220,5.82170263577799
221,5.71117855131428
222,5.60487588820496
223,5.50279460039832
224,5.40224840002148
225,5.30131840476134
226,5.20959877289903
227,5.11634407663277
228,5.02270560850906
229,4.92561328577171
230,4.82813716815106
231,4.72720719591678
232,4.63280120710402
233,4.53263875555878
234,4.43017371892054
235,4.34267548538677
236,4.25325843861745
237,4.16729524646177
238,4.08440218311399
239,4.00688183366709
240,3.93588544461587
241,3.86757543554095
242,3.80041669598667
243,3.74170077611532
244,3.68682250574092
245,3.63501434114855
246,3.59126522438166
247,3.54866740016127
248,3.50722086848738
249,3.47191454837757
250,3.43737577198266
251,3.40629087322724
252,3.37290338937883
253,3.3437373268848
254,3.31610630576887
255,3.286940220249
256,3.25892542727562
257,3.23129440615969
258,3.20327963621217
259,3.17603236392784
260,3.14840134281191
261,3.11846773660299
262,3.08968542294056
263,3.06051936044654
264,3.0340396318771
265,3.00295473312168
266,2.96956724927327
267,2.94116868444244
268,2.90662990804753
269,2.87669630183861
270,2.84676269562969
271,2.81030510599923
272,2.77960397910126
273,2.74660024408445
274,2.71551534532903
275,2.68097656893412
276,2.64797285694315
277,2.61228278800175
278,2.57966282484238
279,2.54781040539791
280,2.50981775136351
281,2.47105757664006
282,2.43421621515216
283,2.39967743875724
284,2.36245230541189
285,2.32599471578144
286,2.29068839567163
287,2.25307951349467
288,2.21547063131772
289,2.17824549797237
290,2.13986907208052
291,2.10187641804611
292,2.06618634910471
293,2.0293449876168
294,1.99442246239029
295,1.96065120668443
296,1.92534490960047
297,1.89118988203716
298,1.85895369073524
299,1.82748504314822
300,1.7975514369393
301,1.76723405887293
302,1.7384517452105
303,1.71427460173407
304,1.68664358061814
305,1.65978008019126
306,1.63445164416832
307,1.6056693305059
308,1.58149218702946
309,1.56230398559646
310,1.54042942721302
311,1.51932238951862
312,1.49668031044613
313,1.47442198020524
314,1.45331496553669
315,1.43527803362434
316,1.41340347524089
317,1.39536656635439
318,1.37425952866
319,1.355071327227
320,1.33741816717209
321,1.32130007152113
322,1.30211187008813
323,1.28253989679768
324,1.26220040281819
325,1.24646605599883
326,1.22689408270838
327,1.20847340196442
328,1.19504166326391
329,1.17777227506645
330,1.16088665872645
331,1.14323349867154
332,1.12788292370963
333,1.11138107922708
334,1.09564673240772
335,1.08067992930326
336,1.06379431296325
337,1.04805998916974
338,1.03309318606528
339,1.01735883924592
340,1.00124074359496
341,0.986273940490499
342,0.972458429932535
343,0.958259170542972
344,0.943676116270109
345,0.928709313165648
346,0.917196387700678
347,0.904148420857612
348,0.890716659131246
349,0.877668692288181
350,0.863469409872767
351,0.848886378625755
352,0.838524745707282
353,0.825092983980916
354,0.811277473422952
355,0.801299612361928
356,0.790170458754407
357,0.777122468885491
358,0.767528356656065
359,0.756399203048544
360,0.745270049441023
361,0.737978522304592
362,0.724163011746627
363,0.711115021877711
364,0.702288453363184
365,0.690775527898214
366,0.675808724793752
367,0.66890096951477
368,0.660841921689291
369,0.648561475535273
370,0.640118655852345
371,0.630140794791321
372,0.620930454419345
373,0.613255155425464
374,0.606347400146482
375,0.596753310942907
376,0.587159198713482
377,0.5802514434345
378,0.574494980702014
379,0.566052161019086
380,0.556074299958062
381,0.549934065368128
382,0.542642561257547
383,0.535734805978565
384,0.527291986295636
385,0.520768002874104
386,0.513860247595121
387,0.506184948601241
388,0.498509672633211
389,0.490834396665181
390,0.486612975310791
391,0.479321471200211
392,0.472797464752827
393,0.467424773877791
394,0.461668311145306
395,0.456679369101869
396,0.44862032127639
397,0.444398922947851
398,0.436723646979821
399,0.431350933078934
400,0.425594470346449
401,0.420221779471413
402,0.414849088596378
403,0.407941333317395
404,0.403719911963006
405,0.398730992945419
406,0.391823237666437
407,0.389520652573443
408,0.384531710530006
409,0.377623955251024
410,0.372251264375988
411,0.370332428114592
412,0.364959737239556
413,0.361122087742616
414,0.354981876178532
415,0.350760454824143
416,0.346155284638155
417,0.343085178856113
418,0.337712487981077
419,0.335026131030634
420,0.330420960844646
421,0.326199562516107
422,0.322745684876616
423,0.319291807237125
424,0.314686637051137
425,0.311616508243244
426,0.30931392315025
427,0.304708752964262
428,0.302406167871268
429,0.299336062089226
430,0.296265956307184
431,0.293195827499292
432,0.29012572171725
433,0.284753030842214
434,0.281682902034321
435,0.277845275563232
436,0.277077731848333
437,0.272088812830747
438,0.268251163333806
439,0.268251163333806
440,0.265948578240812
441,0.261343408054824
442,0.257122009726285
443,0.254819424633291
444,0.253284360229345
445,0.252516839540297
446,0.249062961900806
447,0.247911669354309
448,0.244074019857369
449,0.242538955453423
450,0.239468849671381
451,0.238701328982333
452,0.234863679485393
453,0.231026029988452
454,0.232561094392399
455,0.231409801845902
456,0.22833969606386
457,0.224502046566919
458,0.221815689616476
459,0.222583233331375
460,0.219513104523482
461,0.218745583834434
462,0.214907934337494
463,0.211837828555452
464,0.20876772277341
465,0.207616430226913
466,0.205313845133919
467,0.203778780729973
468,0.202627488183476
469,0.200708674947931
470,0.199557382401434
471,0.198022317997488
472,0.19725479730844
473,0.194184668500548
474,0.1934171478115
475,0.189963270172009
476,0.189195749482961
477,0.186893164389967
478,0.183823035582074
479,0.184974328128571
480,0.183439286750476
481,0.18190422234653
482,0.180369157942583
483,0.178834116564488
484,0.176531531471494
485,0.176147759614044
486,0.174612695210098
487,0.174612695210098
488,0.171542589428056
489,0.171542589428056
490,0.17000752502411
491,0.166937419242068
492,0.167321191099518
493,0.165786126695572
494,0.164251062291625
495,0.163099769745128
496,0.160797184652134
497,0.160029663963086
498,0.159645892105637
499,0.156192014466146
500,0.155808265634547
501,0.155040721919649
502,0.152738136826655
503,0.151970616137607
504,0.150435551733661
505,0.149668031044613
506,0.149668031044613
507,0.147365445951619
508,0.146597925262571
509,0.145446632716074
510,0.143911568312128
511,0.143911568312128
512,0.140457690672637
513,0.140457690672637
514,0.137387584890595
515,0.13892262626869
516,0.138155105579643
517,0.135852520486649
518,0.132782414704607
519,0.132782414704607
520,0.132782414704607
521,0.131247350300661
522,0.131247350300661
523,0.129328537065116
524,0.130479829611613
525,0.129328537065116
526,0.12779347266117
527,0.125490887568175
528,0.124723366879128
529,0.123572074332631
530,0.123572074332631
531,0.122420781786134
532,0.121269489239637
533,0.12011819669314
534,0.12011819669314
535,0.119350652978241
536,0.119350652978241
537,0.11973442483569
538,0.120501945524738
539,0.120501945524738
540,0.116664319053649
541,0.115129254649702
542,0.11589677533875
543,0.11589677533875
544,0.115129254649702
545,0.11589677533875
546,0.112826669556708
547,0.112059148867661
548,0.112826669556708
549,0.112826669556708
550,0.112826669556708
551,0.111675377010211
552,0.10822149937072
553,0.10822149937072
554,0.107837727513271
555,0.106686434966774
556,0.105918914277726
557,0.105151393588678
558,0.10438384987378
559,0.105151393588678
560,0.10438384987378
561,0.102848808495684
562,0.102081264780786
563,0.102081264780786
564,0.102081264780786
565,0.10054622340269
566,0.102081264780786
567,0.0993949308561933
568,0.0986273871412947
569,0.100162451545241
570,0.102465036638235
571,0.100162451545241
572,0.0993949308561933
573,0.0990111589987442
574,0.0986273871412947
575,0.0986273871412947
576,0.0970923457631992
577,0.0963248020483006
578,0.0951735095018036
579,0.0951735095018036
580,0.0936384681237082
581,0.0947897606702052
582,0.0936384681237082
583,0.0905683393158155
584,0.0871144616763244
585,0.0878820053912231
586,0.0878820053912231
587,0.085579420298229
588,0.0867307128447258
589,0.0859631691298276
590,0.0874982335337737
591,0.0871144616763244
592,0.0851956484407795
593,0.0828930633477857
594,0.0817417708012886
595,0.0836605840368334
596,0.0848118765833304
597,0.0828930633477857
598,0.0821255426587379
599,0.0802067063973423
600,0.0798229575657439
601,0.0813579989438393
602,0.0802067063973425
603,0.0802067063973423
604,0.0779041213043482
605,0.0786716650192471
606,0.0763690799262528
607,0.0763690799262528
608,0.0752177873797558
609,0.0748340155223065
610,0.0752177873797558
611,0.0752177873797558
612,0.0740664948332588
613,0.0744502436648572
614,0.0725314304293124
615,0.0725314304293124
616,0.0740664948332588
617,0.0732989511183601
618,0.0729152022867618
619,0.0736827229758095
620,0.0717639097402647
621,0.0732989511183601
622,0.0752177873797558
623,0.0752177873797558
624,0.0763690799262528
625,0.0763690799262528
626,0.0759853080688035
627,0.0756015362113542
628,0.0756015362113542
629,0.0744502436648572
630,0.0732989511183601
631,0.0709963660253661
632,0.0717639097402647
633,0.0740664948332588
634,0.0725314304293124
635,0.0717639097402647
636,0.0729152022867618
637,0.0732989511183601
638,0.0729152022867618
639,0.0717639097402647
640,0.0702288453363184
641,0.0702288453363184
642,0.0706126171937677
643,0.0683100321007737
644,0.0683100321007737
645,0.0679262602433243
646,0.0694613246472707
647,0.0698450734788691
648,0.0690775527898214
649,0.0686937809323721
650,0.0660074470077796
651,0.065239903292881
652,0.064088610746384
653,0.064088610746384
654,0.0633210900573363
655,0.0640886107463842
656,0.0625535693682885
657,0.0633210900573363
658,0.0617860256533899
659,0.0644723826038333
660,0.0644723826038333
661,0.0625535693682885
662,0.0637048619147856
663,0.064088610746384
664,0.0629373181998869
665,0.065239903292881
666,0.0660074470077796
667,0.0660074470077796
668,0.065239903292881
669,0.065239903292881
670,0.0637048619147856
671,0.0637048619147856
672,0.0637048619147856
673,0.0637048619147856
674,0.0633210900573363
675,0.0614022768217915
676,0.0602509842752945
677,0.0621697975108392
678,0.0587159198713482
679,0.0587159198713482
680,0.0606347331068929
681,0.0594834405603959
682,0.0594834405603959
683,0.0598672124178452
684,0.0583321480138989
685,0.0579483991823005
686,0.0575646273248511
687,0.0579483991823005
688,0.0579483991823005
689,0.0598672124178452
690,0.0556458140893064
691,0.0587159198713482
692,0.0571808554674018
693,0.0564133347783541
694,0.0567971066358034
695,0.0564133347783541
696,0.0579483991823005
697,0.0571808554674018
698,0.0575646273248511
699,0.0587159198713482
700,0.0560295629209048
701,0.0552620422318571
702,0.0544945215428094
703,0.0533432289963124
704,0.0533432289963121
705,0.051808164592366
706,0.0521919364498153
707,0.0541107496853601
708,0.0541107496853601
709,0.0514243927349167
710,0.0510406439033186
711,0.0498893513568213
712,0.0487380588103243
713,0.0472029944063779
714,0.0491218076419227
715,0.0468192225489286
716,0.0445166374559346
717,0.0433653449094376
718,0.0456679300024316
719,0.0425978242203899
720,0.0406790109848451
721,0.0379926540344018
722,0.0372251333453541
723,0.0376088821769524
724,0.0376088821769524
725,0.03492254825236
726,0.0330037119909641
727,0.0295498343514735
728,0.0295498343514733
729,0.0283985418049763
730,0.0303173780663717
731,0.0268635004268808
732,0.021107037694396
733,0.0188044526014015
734,0.0161180956509585
735,0.00959411222942571
736,0.00729152713643129
737,0.00729152713643192
738,0.00614023458993439
739,0.00614023458993439
740,0.0049889420434375
741,0.00460517018598759
742,0.00652398342153275
743,0.00652398342153275
744,0.00652398342153275
745,0.00805904782547955
746,0.00805904782547891
747,0.00959411222942509
748,0.011129153607521
749,0.0107454047759226
750,0.0115129254649702
751,0.0141992824154133
752,0.0157343237935085
753,0.0222583302408928
754,0.0222583302408928
755,0.0226420790724912
756,0.0237933716189882
757,0.0264797285694311
758,0.025328436022935
759,0.0276310211159288
760,0.0287823136624256
761,0.0299336062089231
762,0.0310848987554194
763,0.0322361913019169
764,0.0333874838484139
765,0.033771255705863
766,0.0356900689414077
767,0.0356900689414082
768,0.033771255705863
769,0.0383764258918513
770,0.0429815960778389
771,0.0429815960778389
772,0.0441328886243364
773,0.0456679300024316
774,0.047586766263827
775,0.0464354737173302
776,0.0495055794993722
777,0.0514243927349167
778,0.0537269778279105
779,0.0537269778279112
780,0.0525756852814144
781,0.0548782703744075
782,0.0529594571388631
783,0.0548782703744082
784,0.0571808554674018
785,0.0548782703744075
786,0.0575646273248511
787,0.0590996917287973
788,0.0583321480138989
789,0.059867212417845
790,0.0575646273248511
791,0.0587159198713482
792,0.0602509842752943
793,0.0594834405603956
794,0.0621697975108388
795,0.060250984275295
796,0.0602509842752943
797,0.0602509842752943
798,0.0590996917287973
799,0.0556458140893066
800,0.0583321480138989
