Wavelength,Abs
200,45.4123507247176
201,45.0934426893379
202,44.4203203214946
203,43.7640835699913
204,43.0947988286191
205,42.3940454396599
206,41.6971296771717
207,41.0220884960929
208,40.3777484188861
209,39.6973345239064
210,38.9992674918976
211,38.3092594846884
212,37.6392072226272
213,36.9703062531124
214,36.2883572937287
215,35.6206076167604
216,34.9755000418905
217,34.3561046518751
218,33.7501410005602
219,33.1522363970708
220,32.6030698523917
221,32.084220685779
222,31.5799545504133
223,31.0902714462947
224,30.6320570127888
225,30.1907282186489
226,29.744026710608
227,29.3261075162296
228,28.9300628802346
229,28.5071547438128
230,28.0880842568879
231,27.6981798554828
232,27.3144156656419
233,26.9168359652429
234,26.5361419042099
235,26.1773224015603
236,25.8211892328352
237,25.4777202821217
238,25.1311812256261
239,24.7957713457638
240,24.4818522294017
241,24.1756084120335
242,23.8812612919877
243,23.592286862817
244,23.3201980499862
245,23.0703675673964
246,22.8328175539864
247,22.6090830281085
248,22.40108284905
249,22.2034442798841
250,22.009643383241
251,21.8250528039441
252,21.643532353455
253,21.470454699623
254,21.3073549298779
255,21.1450226808218
256,20.9773177178648
257,20.8030887945122
258,20.6342325390087
259,20.466911370935
260,20.2949850096495
261,20.123058648364
262,19.9430732622789
263,19.7634716250253
264,19.5850212803183
265,19.3996631803323
266,19.2123862440849
267,19.0285632085028
268,18.8316921830518
269,18.6286809230109
270,18.4329611901064
271,18.2299499530913
272,18.0280899855969
273,17.8316027320033
274,17.6255213661804
275,17.422126334282
276,17.2279416657814
277,17.0203252355545
278,16.810022471403
279,16.5943469933506
280,16.3794390590131
281,16.1683687511467
282,15.9553796300448
283,15.7412392163963
284,15.5297851596983
285,15.3298440284653
286,15.1241464114739
287,14.9211351744589
288,14.7181239144179
289,14.5124263204524
290,14.3117176455045
291,14.116765433289
292,13.9198944078381
293,13.7318499739274
294,13.5464918739414
295,13.366122692973
296,13.1861373068879
297,13.0149784662914
298,12.8438196487208
299,12.6772660013362
300,12.5149337522801
301,12.3533690239131
302,12.1944906524965
303,12.0352285092224
304,11.8740475527128
305,11.7136341399182
306,11.5539882247867
307,11.3977962103205
308,11.2508145362264
309,11.1046003828212
310,10.9633751484337
311,10.825987586569
312,10.6832273108033
313,10.5385481987763
314,10.3980905081037
315,10.262237987617
316,10.1256179464413
317,9.99206801104766
318,9.86005314005795
319,9.7280382460424
320,9.59448831064874
321,9.45978708270859
322,9.33199361004742
323,9.2022813241507
324,9.0694989094461
325,8.94017039540683
326,8.80738798070223
327,8.6826646138231
328,8.5640814815339
329,8.44281201532012
330,8.32231004676953
331,8.19988928800925
332,8.08284119709815
333,7.96963077870984
334,7.85718785798473
335,7.74052356195693
336,7.62616182799628
337,7.51371893029702
338,7.40511365906885
339,7.29804345224463
340,7.19058947356296
341,7.07853034772115
342,6.96762249139998
343,6.85863347134021
344,6.75463337029803
345,6.65485469061024
346,6.55661105230055
347,6.4599024783948
348,6.36741530281758
349,6.27416060655132
350,6.17783580450302
351,6.08649992147231
352,5.99669910284554
353,5.90843334862272
354,5.81786500930691
355,5.73420440224422
356,5.65361392398943
357,5.56956956809515
358,5.48475769151182
359,5.40301592071053
360,5.32472802754873
361,5.2414511923435
362,5.15932567271061
363,5.08180530023786
364,5.00543622031161
365,4.92024057187083
366,4.83849880106954
367,4.76481607809373
368,4.69266841952187
369,4.61745063214211
370,4.5445354528812
371,4.47392283568743
372,4.40561280358666
373,4.33269762432575
374,4.26362007153593
375,4.1968451038391
376,4.13352401378176
377,4.07365680136392
378,4.00880064690263
379,3.94509578498785
380,3.88292598747701
381,3.82497761132056
382,3.76587791959176
383,3.70677822786296
384,3.64806230799162
385,3.58819509557377
386,3.53063046824892
387,3.47613596973196
388,3.41780379869221
389,3.36100671508226
390,3.3068959653969
391,3.25432025708963
392,3.20366338504377
393,3.1507039279049
394,3.09812824262349
395,3.04670384988857
396,3.00026837617124
397,2.95114656852932
398,2.90202473786155
399,2.85520551531262
400,2.81068887785668
401,2.7661722173749
402,2.72012051551502
403,2.67560387805908
404,2.63031969688825
405,2.58848941638276
406,2.54972921863346
407,2.50674764558147
408,2.46798744783217
409,2.42769220870477
410,2.38778074143483
411,2.35017185925787
412,2.31179543336602
413,2.27764042882856
414,2.2415665880297
415,2.20741158349224
416,2.17133774269339
417,2.13833403070242
418,2.10494654685401
419,2.07386164809859
420,2.04277674934317
421,2.0113080787303
422,1.98137447252138
423,1.95604603649844
424,1.92649620214697
425,1.89963270172009
426,1.87276920129321
427,1.84437065948823
428,1.8167396383723
429,1.79141120234937
430,1.76531524563739
431,1.73998680961445
432,1.71350708104502
433,1.68817864502209
434,1.66592031478119
435,1.6436619845403
436,1.62217119801431
437,1.59914534708436
438,1.57727078870092
439,1.55885010795697
440,1.53851061397747
441,1.52085745392257
442,1.50128548063212
443,1.48056221479517
444,1.46137401336217
445,1.44026697566778
446,1.42338135932777
447,1.40534442741542
448,1.38500493343592
449,1.36811931709591
450,1.35123367773006
451,1.3351155820791
452,1.31938125828559
453,1.30172809823068
454,1.28637754629462
455,1.26910815809717
456,1.25299006244621
457,1.23802325934175
458,1.22113761997589
459,1.20732210941793
460,1.19350659885996
461,1.1785397957555
462,1.16472428519754
463,1.14975748209308
464,1.13594197153511
465,1.12327775352364
466,1.10562461649459
467,1.09180910593663
468,1.07645853097472
469,1.0622592485593
470,1.05113009495178
471,1.03731458439382
472,1.0242665945249
473,1.01313744091738
474,1.00085699476336
475,0.988192776751895
476,0.97821489266502
477,0.968237031603996
478,0.958642919374571
479,0.947897537624499
480,0.93600084030208
481,0.926406728072654
482,0.917196387700678
483,0.905683462235708
484,0.898008186267678
485,0.887262781491755
486,0.878052441119779
487,0.868842100747803
488,0.860399304090725
489,0.849653899314803
490,0.840443558942827
491,0.834303324352892
492,0.824325463291868
493,0.81204501713785
494,0.80436971814397
495,0.795543149629443
496,0.786332809257467
497,0.779041282121035
498,0.771366006153005
499,0.762155665781029
500,0.755631682359496
501,0.747956383365616
502,0.738746042993639
503,0.73107076702561
504,0.724163011746627
505,0.717255256467645
506,0.710731273046112
507,0.700369640127639
508,0.694229405537705
509,0.687321650258723
510,0.681181415668788
511,0.675424952936303
512,0.666982156279226
513,0.66122569354674
514,0.653934166410309
515,0.648561475535273
516,0.640118655852345
517,0.63397842126241
518,0.62630314529438
519,0.621697975108392
520,0.613638927282913
521,0.607498692692979
522,0.601742229960494
523,0.594834474681512
524,0.589461783806476
525,0.584472841763038
526,0.578332630198955
527,0.573343688155517
528,0.566052161019086
529,0.559911949455002
530,0.553771714865068
531,0.548399023990032
532,0.543793853804044
533,0.536502326667613
534,0.531897156481625
535,0.528059506984684
536,0.521919295420601
537,0.513860247595121
538,0.50656872045869
539,0.501963550272702
540,0.496590859397666
541,0.491985689211678
542,0.488148039714738
543,0.482775348839702
544,0.480472763746708
545,0.475100049845821
546,0.470494879659833
547,0.46435466809575
548,0.461284539287857
549,0.457830661648366
550,0.453225491462378
551,0.449771613822887
552,0.445550215494348
553,0.44094504530836
554,0.437107395811419
555,0.434804810718425
556,0.431734704936384
557,0.427897055439443
558,0.424059428968354
559,0.420221779471413
560,0.414849088596378
561,0.414081544881479
562,0.406406268913449
563,0.40218487058491
564,0.399882285491916
565,0.397195928541473
566,0.395660864137527
567,0.39067194511994
568,0.387218067480449
569,0.382996646126059
570,0.380694061033065
571,0.378391475940071
572,0.373786305754083
573,0.370716199972041
574,0.36764609419
575,0.365727257928604
576,0.359970795196119
577,0.358051981960574
578,0.354598104321083
579,0.350376705992544
580,0.347690349042101
581,0.345771535806556
582,0.341550114452167
583,0.339247529359172
584,0.337712487981077
585,0.335026131030634
586,0.331188481533693
587,0.328118375751652
588,0.325815790658657
589,0.321594392330119
590,0.317372970975729
591,0.317372970975729
592,0.31315157264719
593,0.310465215696747
594,0.307011338057256
595,0.306243817368208
596,0.304708752964262
597,0.300871126493172
598,0.299336062089226
599,0.295498412592286
600,0.294347120045789
601,0.292044534952794
602,0.288590657313303
603,0.287439364766806
604,0.286288072220309
605,0.282066673891771
606,0.27822902439483
607,0.27822902439483
608,0.274775146755339
609,0.271705040973297
610,0.271705040973297
611,0.270169976569351
612,0.267867391476357
613,0.264797285694315
614,0.262878472458771
615,0.260959636197375
616,0.260192115508327
617,0.258273302272782
618,0.258273302272782
619,0.256354466011387
620,0.250981775136351
621,0.249446710732405
622,0.247911669354309
623,0.243306499168321
624,0.23985262152883
625,0.239085077813931
626,0.239085077813931
627,0.239468849671381
628,0.236398743889339
629,0.238317557124884
630,0.239468849671381
631,0.237166264578387
632,0.23563120017444
633,0.234479907627943
634,0.229107216752908
635,0.227572152348961
636,0.225653339113416
637,0.221815689616476
638,0.221048168927428
639,0.217210519430488
640,0.217210519430488
641,0.214524185505896
642,0.214524185505896
643,0.211070307866405
644,0.209919015319907
645,0.207616430226913
646,0.203011260040925
647,0.201476195636979
648,0.201476195636979
649,0.199941131233033
650,0.198789838686536
651,0.19725479730844
652,0.193800919668949
653,0.193800919668949
654,0.1934171478115
655,0.191498334575955
656,0.191114562718506
657,0.187660685079015
658,0.18574187184347
659,0.187660685079015
660,0.186125620675068
661,0.184974328128571
662,0.182671743035577
663,0.179985409110985
664,0.178834116564488
665,0.177682824017991
666,0.17384517452105
667,0.171542589428057
668,0.169240004335062
669,0.169240004335062
670,0.17000752502411
671,0.168088711788565
672,0.166937419242068
673,0.167704939931116
674,0.164251062291625
675,0.164251062291625
676,0.164251062291625
677,0.159645892105637
678,0.159645892105637
679,0.15849459955914
680,0.157343307012643
681,0.157343307012643
682,0.156192014466146
683,0.155040721919649
684,0.153889429373152
685,0.153121908684104
686,0.151970616137607
687,0.152738136826655
688,0.151203095448559
689,0.147749217809068
690,0.148900510355565
691,0.145446632716074
692,0.146597925262571
693,0.143911568312128
694,0.14314404762308
695,0.141992755076583
696,0.142376503908182
697,0.141225211361685
698,0.138155105579643
699,0.135084999797601
700,0.137387584890595
701,0.138538877437092
702,0.133933707251104
703,0.132782414704607
704,0.132014870989709
705,0.13163112215811
706,0.129328537065116
707,0.130479829611613
708,0.130479829611613
709,0.128560993350217
710,0.127025951972122
711,0.12740970080372
712,0.128560993350217
713,0.12779347266117
714,0.123955823164229
715,0.124339595021678
716,0.125874659425625
717,0.125107115710726
718,0.123188302475181
719,0.121653238071235
720,0.121653238071235
721,0.121653238071235
722,0.119350652978241
723,0.118966904146643
724,0.116664319053649
725,0.11589677533875
726,0.116280547196199
727,0.115129254649702
728,0.115513026507152
729,0.113594190245756
730,0.112826669556708
731,0.115513026507152
732,0.113210441414157
733,0.11205914886766
734,0.107837727513271
735,0.104000101042181
736,0.099011158998744
737,0.095941053216702
738,0.0936384681237082
739,0.090568339315815
740,0.0901845904842166
741,0.0905683393158157
742,0.0921034037197614
743,0.0917196318623127
744,0.0909521111732643
745,0.0890332979377198
746,0.0909521111732643
747,0.090952111173265
748,0.0863469409872767
749,0.0874982335337737
750,0.0863469409872767
751,0.0863469409872767
752,0.0867307128447253
753,0.0882657542228212
754,0.0898008186267675
755,0.0882657542228212
756,0.0890332979377198
757,0.0882657542228212
758,0.0867307128447253
759,0.0851956484407792
760,0.0863469409872767
761,0.0898008186267675
762,0.0882657542228212
763,0.0871144616763244
764,0.0882657542228212
765,0.086730712844726
766,0.0863469409872767
767,0.0859631691298276
768,0.0859631691298276
769,0.0825092914903361
770,0.0825092914903361
771,0.0828930633477854
772,0.0828930633477854
773,0.0821255426587379
774,0.0821255426587379
775,0.0855794202982285
776,0.0855794202982292
777,0.0874982335337737
778,0.0859631691298269
779,0.0855794202982285
780,0.0836605840368331
781,0.0825092914903361
782,0.0863469409872767
783,0.0848118765833306
784,0.0836605840368338
785,0.0836605840368338
786,0.0798229575657441
787,0.0813579989438393
788,0.0813579989438393
789,0.0828930633477854
790,0.0817417708012886
791,0.0805904782547912
792,0.0813579989438393
793,0.0821255426587379
794,0.0794391857082948
795,0.0805904782547916
796,0.0809742501122409
797,0.0802067063973425
798,0.0786716650192464
799,0.0775203724727496
800,0.076752828757851
