Wavelength,Abs
200,7.86774138834486
201,7.62078913712124
202,7.15336436324345
203,6.7302643524058
204,6.33786546846611
205,5.96235222389228
206,5.63231501187923
207,5.33777601741765
208,5.05398240470613
209,4.78573124137232
210,4.54012215711101
211,4.3119743584888
212,4.09649075485221
213,3.89271197412223
214,3.6939221354357
215,3.50280757271719
216,3.32646793868735
217,3.16221685336987
218,3.00544919263048
219,2.85386234835032
220,2.71378840650928
221,2.58580305943231
222,2.46817934527382
223,2.3589984277724
224,2.25423080604117
225,2.16212740232141
226,2.07175093742139
227,1.99423056494864
228,1.92246667823423
229,1.84916770409002
230,1.78143334128834
231,1.71715283310031
232,1.65594245372017
233,1.59876157522692
234,1.54349953299506
235,1.49744783113518
236,1.45273931926344
237,1.41244408013605
238,1.3715731947354
239,1.33722629275629
240,1.30652516585832
241,1.2779347266117
242,1.25299006244621
243,1.22804537525487
244,1.20501952432493
245,1.18314496594149
246,1.16510805705499
247,1.14649550189524
248,1.12845856998288
249,1.11310801804682
250,1.09622237868097
251,1.0822149937072
252,1.06801571129179
253,1.05611903699522
254,1.0442223396728
255,1.03117434980388
256,1.02062084246961
257,1.01179427395508
258,1.00124074359496
259,0.990687236260688
260,0.978790538938269
261,0.969388324150493
262,0.958067273101322
263,0.948665058313547
264,0.941565428618765
265,0.931779441973541
266,0.921993455328316
267,0.911439924968193
268,0.898583832540926
269,0.888414074038252
270,0.880163151796974
271,0.867690808201306
272,0.857137300867034
273,0.845432500986264
274,0.834687096210342
275,0.819528418690081
276,0.809166785771608
277,0.796886316591739
278,0.78479774485352
279,0.770982234295556
280,0.758509913725739
281,0.744118756894526
282,0.732797705845355
283,0.714568899517202
284,0.702480327778983
285,0.693461884848657
286,0.680989541252989
287,0.666406510005977
288,0.652399102006363
289,0.641461822814641
290,0.629373251076422
291,0.618244097468901
292,0.607882464550428
293,0.598096477905203
294,0.586775426856032
295,0.577756983925706
296,0.571041103062523
297,0.561638888274748
298,0.555498653684814
299,0.548015252132583
300,0.541875017542648
301,0.538229265487358
302,0.532472802754873
303,0.528827050699583
304,0.525181275618442
305,0.520192356600855
306,0.516930353377163
307,0.51059824437143
308,0.509638826240732
309,0.507911887420986
310,0.506184948601241
311,0.505609302327992
312,0.50253919654595
313,0.499660965179708
314,0.498125900775762
315,0.496782733813465
316,0.495247669409519
317,0.494672023136271
318,0.492561335484927
319,0.488531811572187
320,0.485653580205945
321,0.481240284435756
322,0.479129573758561
323,0.478362053069513
324,0.471262423374732
325,0.469151712697537
326,0.463587124380851
327,0.461092664872058
328,0.45610372282862
329,0.449771613822887
330,0.442288212270656
331,0.436531749538171
332,0.430967184247336
333,0.424635075241602
334,0.415808483701224
335,0.40986014655294
336,0.404871204509503
337,0.397579700398922
338,0.388561234442745
339,0.384339836114206
340,0.375513244573829
341,0.365919155370254
342,0.358051981960574
343,0.349609162277646
344,0.340398821905669
345,0.331572253391143
346,0.32466449811216
347,0.316605450286681
348,0.310848987554196
349,0.302022419039669
350,0.295306538176486
351,0.288398782897504
352,0.282642320165019
353,0.277845275563232
354,0.274391397923741
355,0.271129394700049
356,0.267099870787309
357,0.264413513836866
358,0.262110928743872
359,0.256738237868836
360,0.25539507090654
361,0.249062961900806
362,0.24752789749686
363,0.246184730534564
364,0.241963309180174
365,0.241195788491126
366,0.240236370360428
367,0.238701328982333
368,0.234863679485393
369,0.234096158796345
370,0.231601676261701
371,0.230066634883605
372,0.226612757244115
373,0.22411827470947
374,0.223926400293671
375,0.222199461473925
376,0.22047252265418
377,0.218169937561186
378,0.215867352468192
379,0.213564767375198
380,0.209727117878257
381,0.210302764151506
382,0.207424532785263
383,0.20493007327647
384,0.202435613767677
385,0.199365484959784
386,0.198597964270736
387,0.195911607320293
388,0.196679151035192
389,0.192457729680802
390,0.188428205768062
391,0.186701266948317
392,0.181328576073281
393,0.18190422234653
394,0.179793511669335
395,0.177299052160542
396,0.17403704893685
397,0.17000752502411
398,0.168664358061814
399,0.165018606006524
400,0.165018606006523
401,0.163867313460027
402,0.159454017689838
403,0.156000140050347
404,0.154848847503849
405,0.151778741721808
406,0.150051802902062
407,0.148516738498116
408,0.145062860858625
409,0.145062860858625
410,0.142760275765631
411,0.139882044399388
412,0.136236292344098
413,0.136428166759897
414,0.133166163536205
415,0.13163112215811
416,0.130096057754164
417,0.12760159824537
418,0.124531469437478
419,0.124531469437477
420,0.124531469437477
421,0.122804530617732
422,0.12011819669314
423,0.118583132289193
424,0.118583132289193
425,0.119158778562442
426,0.119158778562442
427,0.1160886727804
428,0.1160886727804
429,0.114361733960655
430,0.113594190245756
431,0.113594190245756
432,0.109756563774666
433,0.110140312606265
434,0.110524084463714
435,0.109948438190466
436,0.108989020059768
437,0.108029624954921
438,0.105727039861927
439,0.105727039861927
440,0.105343268004478
441,0.10457574731543
442,0.10457574731543
443,0.10457574731543
444,0.103616329184732
445,0.104191975457981
446,0.103616329184732
447,0.102465036638235
448,0.102465036638235
449,0.100929972234289
450,0.100929972234289
451,0.0988192845829448
452,0.0972842201789984
453,0.0965166994899507
454,0.098819284582945
455,0.098819284582945
456,0.0965166994899507
457,0.0959410532167025
458,0.0942141143969567
459,0.0942141143969567
460,0.0942141143969567
461,0.0924871755772109
462,0.091143985589064
463,0.0909521111732648
464,0.0921034037197618
465,0.0913358830307141
466,0.089992693042567
467,0.0882657542228212
468,0.0882657542228212
469,0.0865388154030759
470,0.0865388154030759
471,0.0865388154030759
472,0.0859631691298274
473,0.0840443558942827
474,0.0825092914903363
475,0.0811661245280401
476,0.0803986038389924
477,0.0803986038389924
478,0.0788635394350461
479,0.0800148319815433
480,0.0800148319815433
481,0.0794391857082946
482,0.0780960187459984
483,0.0780960187459984
484,0.0780960187459984
485,0.0773284750311
486,0.0779041213043482
487,0.0779041213043482
488,0.0757934336530045
489,0.0757934336530045
490,0.0757934336530045
491,0.0757934336530043
492,0.0750258899381057
493,0.0746421411065073
494,0.0746421411065073
495,0.0734908485600103
496,0.0711882634670162
497,0.0711882634670162
498,0.0721476585718631
499,0.0706126171937677
500,0.0706126171937677
501,0.0709963660253661
502,0.0700369709205192
503,0.0700369709205192
504,0.0688856783740222
505,0.0692694272056203
506,0.0702288453363184
507,0.0692694272056206
508,0.0685019065165729
509,0.0681181346591235
510,0.0681181346591235
511,0.0677343858275252
512,0.0677343858275252
513,0.0665830932810281
514,0.0654318007345311
515,0.0654318007345311
516,0.0661993214235788
517,0.0660074470077796
518,0.0656236751503303
519,0.0648561544612826
520,0.0642805081880341
521,0.0642805081880341
522,0.0650480288770818
523,0.0658155495661295
524,0.0650480288770818
525,0.0635129644731355
526,0.06197792309504
527,0.06197792309504
528,0.06197792309504
529,0.062745443784088
530,0.062745443784088
531,0.0612103793801416
532,0.0612103793801416
533,0.06197792309504
534,0.060826630548543
535,0.06197792309504
536,0.06197792309504
537,0.0567971066358034
538,0.0560295629209048
539,0.0544945215428094
540,0.0550701678160579
541,0.0550701678160579
542,0.0544945215428094
543,0.0544945215428094
544,0.0560295629209048
545,0.0567971066358034
546,0.0544945215428094
547,0.0544945215428094
548,0.0544945215428094
549,0.0543026241011593
550,0.0543026241011593
551,0.0541107496853601
552,0.0512325183191175
553,0.0520000390081652
554,0.0521919364498153
555,0.0520000390081652
556,0.0527675827230639
557,0.0514243927349167
558,0.050656872045869
559,0.0521919364498153
560,0.051808164592366
561,0.050656872045869
562,0.0508487464616682
563,0.0521919364498153
564,0.050656872045869
565,0.0493137050835728
566,0.0502731001884197
567,0.0504649976300698
568,0.0504649976300698
569,0.0487380588103243
570,0.0514243927349167
571,0.0514243927349167
572,0.0479705150954257
573,0.0481624125370758
574,0.0489299332261235
575,0.0470111199905787
576,0.0464354737173302
577,0.0462435762756801
578,0.0454760555866324
579,0.0450922837291831
580,0.0468192225489288
581,0.0456679300024316
582,0.0462435762756801
583,0.0479705150954259
584,0.0462435762756801
585,0.0447085348975847
586,0.0433653449094376
587,0.0441328886243362
588,0.0454760555866324
589,0.0452841811708334
590,0.0456679300024316
591,0.0462435762756801
592,0.0445166374559346
593,0.0458598274440817
594,0.0450922837291831
595,0.0445166374559346
596,0.0454760555866324
597,0.0464354737173302
598,0.0449004093133839
599,0.0456679300024316
600,0.0458598274440817
601,0.0433653449094376
602,0.0449004093133839
603,0.0429815960778392
604,0.0439409911826861
605,0.0433653449094373
606,0.0433653449094373
607,0.0433653449094373
608,0.0429815960778392
609,0.0439409911826861
610,0.0424059498045909
611,0.042789698636189
612,0.0422140523629405
613,0.0445166374559346
614,0.0439409911826861
615,0.0439409911826861
616,0.0439409911826861
617,0.041638406089692
618,0.041638406089692
619,0.0424059498045907
620,0.040487113543195
621,0.042789698636189
622,0.0406790109848454
623,0.0389520721650996
624,0.0418303035313421
625,0.0418303035313421
626,0.0401033647115966
627,0.042789698636189
628,0.0435572423510879
629,0.0429815960778392
630,0.0420221779471413
631,0.041638406089692
632,0.0435572423510877
633,0.0422140523629405
634,0.040487113543195
635,0.040487113543195
636,0.0410627598164435
637,0.0418303035313421
638,0.0412546572580936
639,0.0401033647115966
640,0.0401033647115966
641,0.0401033647115966
642,0.0418303035313421
643,0.0397195928541473
644,0.0399114672699465
645,0.039335820996698
646,0.0395277184383481
647,0.0391439465808988
648,0.0402952391273958
649,0.0399114672699465
650,0.0389520721650996
651,0.0383764258918511
652,0.0381845284502009
653,0.039335820996698
654,0.0389520721650996
655,0.0387601747234495
656,0.0391439465808988
657,0.0395277184383481
658,0.0399114672699465
659,0.0402952391273958
660,0.0376088821769524
661,0.039335820996698
662,0.0389520721650996
663,0.0383764258918511
664,0.0366494870721055
665,0.036073840798857
666,0.0354981945256085
667,0.0356900689414077
668,0.0343469019791115
669,0.0343469019791115
670,0.0354981945256085
671,0.0353062970839584
672,0.0353062970839584
673,0.0351144226681592
674,0.0376088821769524
675,0.0376088821769524
676,0.0381845284502009
677,0.0364575896304554
678,0.0366494870721055
679,0.0385683003076503
680,0.0381845284502009
681,0.0364575896304554
682,0.0368413614879047
683,0.0358819433572069
684,0.0374170077611532
685,0.0370332359037039
686,0.037992654034402
687,0.0364575896304554
688,0.0353062970839584
689,0.0376088821769524
690,0.0368413614879047
691,0.036073840798857
692,0.0372251333453541
693,0.0368413614879047
694,0.0376088821769524
695,0.0374170077611532
696,0.0368413614879047
697,0.0381845284502009
698,0.0381845284502009
699,0.0370332359037039
700,0.0370332359037039
701,0.0358819433572069
702,0.0358819433572069
703,0.0362657152146562
704,0.0362657152146562
705,0.0366494870721055
706,0.0370332359037039
707,0.037992654034402
708,0.0372251333453541
709,0.0366494870721055
710,0.0378007796186026
711,0.0368413614879047
712,0.0362657152146564
713,0.0379926540344018
714,0.0372251333453541
715,0.0362657152146564
716,0.0358819433572069
717,0.0383764258918511
718,0.0387601747234497
719,0.0395277184383483
720,0.0387601747234497
721,0.0389520721650998
722,0.0379926540344018
723,0.0387601747234495
724,0.0385683003076505
725,0.0389520721650994
726,0.0385683003076503
727,0.0374170077611532
728,0.0381845284502009
729,0.0389520721650994
730,0.0389520721650998
731,0.0397195928541473
732,0.0408708854006445
733,0.0439409911826856
734,0.0433653449094378
735,0.0441328886243357
736,0.0447085348975849
737,0.0435572423510879
738,0.0437491167668866
739,0.0449004093133841
740,0.0435572423510879
741,0.0424059498045904
742,0.0406790109848451
743,0.0420221779471418
744,0.0425978242203903
745,0.0429815960778389
746,0.0431734704936388
747,0.0435572423510879
748,0.0422140523629403
749,0.0422140523629403
750,0.0429815960778389
751,0.0437491167668871
752,0.0425978242203896
753,0.040487113543195
754,0.0412546572580936
755,0.0412546572580941
756,0.0389520721650998
757,0.0395277184383483
758,0.0381845284502012
759,0.0399114672699465
760,0.0408708854006443
761,0.040487113543195
762,0.0439409911826863
763,0.0425978242203896
764,0.0422140523629403
765,0.0427896986361888
766,0.0418303035313419
767,0.0393358209966982
768,0.0368413614879045
769,0.0360738407988568
770,0.0356900689414077
771,0.0351144226681592
772,0.0381845284502005
773,0.039143946580899
774,0.0385683003076505
775,0.0356900689414077
776,0.0374170077611537
777,0.03492254825236
778,0.0347306508107099
779,0.036649487072106
780,0.0358819433572069
781,0.0328118375751654
782,0.0339631301216622
783,0.0343469019791115
784,0.0343469019791115
785,0.033771255705863
786,0.0330037119909639
787,0.0335793582642131
788,0.0343469019791115
789,0.0328118375751654
790,0.0328118375751654
791,0.0324280657177161
792,0.0330037119909639
793,0.0351144226681592
794,0.0333874838484139
795,0.03492254825236
796,0.0341550045374614
797,0.0331956094326147
798,0.0333874838484139
799,0.0335793582642131
800,0.0353062970839584
