Wavelength,Abs
200,8.47984525122382
201,8.25016238819767
202,7.81382251307529
203,7.41835352335357
204,7.05051555474777
205,6.70455214452541
206,6.4017622047967
207,6.12948151755015
208,5.86986504831507
209,5.6269423210042
210,5.40589415207677
211,5.20384231016654
212,5.02366502663976
213,4.85672760739769
214,4.7001518210741
215,4.55048379002948
216,4.41750950090908
217,4.29547249098039
218,4.18207017515044
219,4.06924350559373
220,3.96562717640899
221,3.87179683386949
222,3.78487424660896
223,3.70140553698793
224,3.62081505873314
225,3.54713233575733
226,3.47287396650827
227,3.40725029135794
228,3.33702144602162
229,3.2690951857783
230,3.20059327926172
231,3.13094008019865
232,3.06589205132157
233,3.00141966871774
234,2.9380985786604
235,2.88283653642855
236,2.82584755537694
237,2.77288809823808
238,2.72280687246546
239,2.67963340197182
240,2.63588428520493
241,2.59731598489728
242,2.55932333086288
243,2.52593584701447
244,2.49485094825905
245,2.46491734205013
246,2.43958890602719
247,2.41483611627751
248,2.39181026534756
249,2.37108699951062
250,2.34690985603418
251,2.32791352901698
252,2.30949284827303
253,2.28992087498258
254,2.27380277933162
255,2.25423080604117
256,2.23638577157047
257,2.2225702610125
258,2.2035739339953
259,2.18688019207109
260,2.16961080387364
261,2.15291706194943
262,2.13392073493223
263,2.11492440791503
264,2.09707937344433
265,2.07923433897362
266,2.05908671940993
267,2.03893909984623
268,2.02109406537552
269,2.00209773835832
270,1.98079882624813
271,1.95719732904494
272,1.93935229457423
273,1.91805338246404
274,1.8950275315341
275,1.87142603433091
276,1.84955147594747
277,1.82652562501753
278,1.80292412781434
279,1.7787469843379
280,1.75514548713471
281,1.72924140483853
282,1.70563990763534
283,1.67973582533916
284,1.65498303558947
285,1.63253283093278
286,1.60778004118309
287,1.58245160516016
288,1.55885010795697
289,1.53639990330028
290,1.51279840609709
291,1.48977255516715
292,1.4690492893302
293,1.450052962313
294,1.42645146510981
295,1.40630384554611
296,1.38845881107541
297,1.36946248405821
298,1.34989051076776
299,1.33089418375056
300,1.3136247955531
301,1.2969310536289
302,1.28311554307093
303,1.26642180114672
304,1.25318193686201
305,1.23476125611806
306,1.22382397692634
307,1.20482764990913
308,1.19273907817092
309,1.1806505064327
310,1.16741064214798
311,1.15417077786327
312,1.14380914494479
313,1.13056928066008
314,1.11675377010211
315,1.1023626132709
316,1.09200098035243
317,1.07876111606771
318,1.06552125178299
319,1.05343268004478
320,1.04134410830656
321,1.02925553656834
322,1.02177213501611
323,1.01256179464413
324,0.997019345266422
325,0.988384651167694
326,0.978598664522469
327,0.966510092784251
328,0.957299752412275
329,0.94751376576705
330,0.936576486575328
331,0.921609683470867
332,0.91642886701163
333,0.906642880366406
334,0.897432539994429
335,0.891100430988696
336,0.88189009061672
337,0.874982335337737
338,0.862893763599519
339,0.857137300867034
340,0.84677566794856
341,0.838716620123081
342,0.832384511117348
343,0.825476755838365
344,0.816266415466389
345,0.807056075094413
346,0.803602197454922
347,0.79669444217594
348,0.789786686896958
349,0.781727639071479
350,0.774244237519248
351,0.767336482240266
352,0.760428726961284
353,0.752945325409053
354,0.750642740316059
355,0.743159338763828
356,0.740281107397586
357,0.733373352118604
358,0.725314304293124
359,0.721860426653633
360,0.7155283176479
361,0.708044916095669
362,0.702288453363184
363,0.697107636903947
364,0.691351174171462
365,0.686746003985474
366,0.679262602433243
367,0.674657432247255
368,0.66890096951477
369,0.665447091875279
370,0.657963690323049
371,0.651055935044066
372,0.646450764858078
373,0.642421240945339
374,0.638391717032599
375,0.633210900573362
376,0.626878791567629
377,0.621122328835144
378,0.615365866102659
379,0.614214573556162
380,0.603852940637688
381,0.600974709271446
382,0.5992477704517
383,0.59176436889947
384,0.586583552440233
385,0.581978382254245
386,0.577373212068257
387,0.572768041882269
388,0.569314164242778
389,0.56470899405679
390,0.556074299958062
391,0.554347361138317
392,0.549742190952328
393,0.546863959586086
394,0.542834435673346
395,0.53765361921411
396,0.53362409530137
397,0.527291986295636
398,0.523262462382897
399,0.519232938470157
400,0.514627768284169
401,0.512325183191175
402,0.508295659278436
403,0.503690489092447
404,0.500236611452956
405,0.495631441266968
406,0.492753209900726
407,0.488148039714738
408,0.484694162075247
409,0.48354286952875
410,0.478937699342761
411,0.476059467976519
412,0.470878651517282
413,0.46800042015104
414,0.4639708962383
415,0.462819603691803
416,0.461668311145306
417,0.457638787232567
418,0.454184909593076
419,0.450731031953584
420,0.446125861767596
421,0.444398922947851
422,0.442096337854857
423,0.437491167668869
424,0.435188582575875
425,0.433461643756129
426,0.427705181023644
427,0.42540259593065
428,0.423100010837656
429,0.419070486924916
430,0.413314024192431
431,0.413314024192431
432,0.411011439099437
433,0.40986014655294
434,0.407557561459946
435,0.4058306226402
436,0.402952391273958
437,0.398922867361218
438,0.395468989721727
439,0.39431769717523
440,0.392015112082236
441,0.390863819535739
442,0.385107356803254
443,0.385107356803254
444,0.382229125437012
445,0.378199601524272
446,0.376472662704527
447,0.375321370158029
448,0.373018785065035
449,0.369564907425544
450,0.368413614879047
451,0.366686676059302
452,0.360930213326817
453,0.35977892078032
454,0.35977892078032
455,0.358627628233823
456,0.355173750594332
457,0.352295519228089
458,0.349417287861846
459,0.347114702768852
460,0.344812117675858
461,0.341933886309616
462,0.34020694748987
463,0.338480008670125
464,0.337328716123628
465,0.335026131030634
466,0.333299192210888
467,0.330420960844646
468,0.329269668298149
469,0.325240144385409
470,0.322937559292415
471,0.322937559292415
472,0.318908035379675
473,0.315454157740184
474,0.314302865193687
475,0.312575926373942
476,0.311424633827445
477,0.310273341280948
478,0.309122048734451
479,0.304516878548463
480,0.303365586001966
481,0.300487354635723
482,0.299911708362474
483,0.29760912326948
484,0.295306538176486
485,0.295306538176486
486,0.295882184449735
487,0.293579599356741
488,0.288398782897504
489,0.288398782897504
490,0.287247490351007
491,0.28609619780451
492,0.283793612711516
493,0.282642320165019
494,0.282642320165019
495,0.280339735072025
496,0.276885857432534
497,0.275734564886037
498,0.275158918612789
499,0.274007626066291
500,0.274007626066291
501,0.271705040973297
502,0.267675517060558
503,0.266524224514061
504,0.265372931967564
505,0.264221639421067
506,0.263645993147818
507,0.261919054328073
508,0.261919054328073
509,0.260767761781576
510,0.258465176688582
511,0.257313884142085
512,0.255011299049091
513,0.253860006502594
514,0.252708713956097
515,0.252708713956097
516,0.252708713956097
517,0.249830482589854
518,0.248679190043357
519,0.248679190043357
520,0.245800958677114
521,0.245800958677114
522,0.245800958677114
523,0.244649666130617
524,0.241195788491126
525,0.241195788491126
526,0.241195788491126
527,0.238893203398132
528,0.236590618305138
529,0.236590618305138
530,0.235439325758641
531,0.233136740665647
532,0.233136740665647
533,0.230834155572653
534,0.229682863026156
535,0.228531570479659
536,0.228531570479659
537,0.224502046566919
538,0.224502046566919
539,0.224502046566919
540,0.223926400293671
541,0.221623815200677
542,0.221048168927428
543,0.221048168927428
544,0.221048168927428
545,0.221048168927428
546,0.217594291287937
547,0.21644299874144
548,0.215291706194943
549,0.215867352468192
550,0.215867352468192
551,0.214140413648446
552,0.211262182282204
553,0.211262182282204
554,0.210686536008955
555,0.207808304642713
556,0.207808304642713
557,0.206081365822967
558,0.206081365822967
559,0.206081365822967
560,0.203778780729973
561,0.203778780729973
562,0.203203134456725
563,0.201476195636979
564,0.201476195636979
565,0.199749256817233
566,0.199173610543985
567,0.198597964270736
568,0.198597964270736
569,0.196871025450991
570,0.195719732904494
571,0.195719732904494
572,0.192265855265003
573,0.191690208991754
574,0.193992794084748
575,0.190538916445257
576,0.189963270172009
577,0.188236331352263
578,0.185933746259269
579,0.184782453712772
580,0.187660685079015
581,0.186509392532518
582,0.184782453712772
583,0.184206807439524
584,0.183631161166275
585,0.182479868619778
586,0.178450344707039
587,0.179601637253536
588,0.180177283526784
589,0.178450344707039
590,0.178450344707039
591,0.17787469843379
592,0.176147759614044
593,0.176723405887293
594,0.174420820794299
595,0.17384517452105
596,0.173269528247802
597,0.17384517452105
598,0.172693881974553
599,0.171542589428056
600,0.170966943154808
601,0.171542589428056
602,0.169240004335062
603,0.166937419242068
604,0.165210480422323
605,0.166937419242068
606,0.165786126695571
607,0.165786126695571
608,0.165786126695572
609,0.165210480422323
610,0.161756602782832
611,0.160605310236335
612,0.161180956509583
613,0.161180956509583
614,0.160605310236335
615,0.160605310236335
616,0.159454017689838
617,0.154848847503849
618,0.154848847503849
619,0.153697554957352
620,0.152546262410856
621,0.152546262410856
622,0.154273201230601
623,0.152546262410856
624,0.153121908684104
625,0.153121908684104
626,0.151394969864359
627,0.152546262410856
628,0.149092384771364
629,0.147365445951619
630,0.14678979967837
631,0.146789799678371
632,0.149092384771364
633,0.147365445951619
634,0.144487214585376
635,0.144487214585376
636,0.143911568312128
637,0.141608983219134
638,0.141033336945885
639,0.137579459306394
640,0.137579459306394
641,0.137579459306394
642,0.137003813033146
643,0.1352768742134
644,0.134701227940152
645,0.1352768742134
646,0.134701227940152
647,0.132398642847158
648,0.131247350300661
649,0.131247350300661
650,0.129520411480915
651,0.12779347266117
652,0.130671704027412
653,0.130671704027412
654,0.128369118934418
655,0.128944765207667
656,0.128944765207667
657,0.126642180114673
658,0.12779347266117
659,0.12779347266117
660,0.124339595021678
661,0.12376394874843
662,0.12376394874843
663,0.123188302475181
664,0.122612656201933
665,0.122037009928684
666,0.121461363655436
667,0.11973442483569
668,0.118007486015945
669,0.118007486015945
670,0.119158778562442
671,0.118583132289193
672,0.118583132289193
673,0.116856193469448
674,0.120885717382187
675,0.11973442483569
676,0.120310071108939
677,0.118583132289193
678,0.118007486015945
679,0.119158778562442
680,0.116856193469448
681,0.116280547196199
682,0.115129254649702
683,0.115704900922951
684,0.115704900922951
685,0.116856193469448
686,0.113977962103205
687,0.113977962103205
688,0.113977962103205
689,0.112826669556708
690,0.113977962103205
691,0.111675377010211
692,0.111675377010211
693,0.111675377010211
694,0.110524084463714
695,0.111099730736963
696,0.110524084463714
697,0.111099730736963
698,0.11225102328346
699,0.108797145643969
700,0.107645853097472
701,0.107645853097472
702,0.107645853097472
703,0.108797145643969
704,0.107645853097472
705,0.108797145643969
706,0.108797145643969
707,0.10822149937072
708,0.107070206824223
709,0.106494560550975
710,0.106494560550975
711,0.107070206824223
712,0.106494560550975
713,0.107070206824223
714,0.105918914277726
715,0.105343268004478
716,0.105343268004478
717,0.10822149937072
718,0.107070206824223
719,0.105918914277726
720,0.107070206824223
721,0.106494560550975
722,0.104767621731229
723,0.105918914277726
724,0.104191975457981
725,0.106494560550974
726,0.103040682911484
727,0.101889390364987
728,0.104191975457981
729,0.106494560550975
730,0.107645853097472
731,0.108797145643969
732,0.107645853097472
733,0.108797145643969
734,0.109372791917217
735,0.109372791917217
736,0.109948438190466
737,0.108797145643969
738,0.10822149937072
739,0.107070206824224
740,0.107645853097472
741,0.105343268004478
742,0.104767621731229
743,0.106494560550975
744,0.105918914277727
745,0.107070206824223
746,0.106494560550975
747,0.105343268004478
748,0.105918914277726
749,0.103616329184732
750,0.104767621731229
751,0.105918914277727
752,0.104767621731229
753,0.101889390364987
754,0.101889390364987
755,0.10073809781849
756,0.0984355127254955
757,0.097859866452247
758,0.0984355127254955
759,0.0967085739057502
760,0.0972842201789987
761,0.097284220178998
762,0.0972842201789987
763,0.0944059888127556
764,0.0955572813592527
765,0.0938303425395074
766,0.0944059888127556
767,0.0903764649000165
768,0.0898008186267675
769,0.0874982335337737
770,0.0863469409872767
771,0.0846200021675314
772,0.0869225872605252
773,0.0874982335337737
774,0.0869225872605252
775,0.0851956484407799
776,0.0869225872605252
777,0.0851956484407792
778,0.0846200021675307
779,0.0857712947140284
780,0.0846200021675314
781,0.0834687096210346
782,0.0834687096210346
783,0.0846200021675314
784,0.0823174170745369
785,0.0817417708012886
786,0.0805904782547912
787,0.0823174170745369
788,0.0823174170745369
789,0.0834687096210339
790,0.0834687096210339
791,0.0834687096210346
792,0.0828930633477854
793,0.0823174170745369
794,0.0817417708012886
795,0.0828930633477861
796,0.0828930633477854
797,0.0823174170745369
798,0.0805904782547916
799,0.0823174170745369
800,0.0828930633477854
