Wavelength,Abs
200,43.2540609718931
201,41.9838014521719
202,39.5468989721727
203,37.321066638859
204,35.2257142042344
205,33.2416535359435
206,31.4609875771891
207,29.8491780120933
208,28.3409847761822
209,26.9172197371004
210,25.5970710272033
211,24.4150771926274
212,23.3213492734552
213,22.3312376834678
214,21.3871777953402
215,20.5313838226164
216,19.7062906774545
217,18.9579505222315
218,18.2441491434033
219,17.5687242595446
220,16.9163252266158
221,16.3291660279023
222,15.8034089448296
223,15.3045156615199
224,14.8286479988817
225,14.3758061871733
226,13.9498279449694
227,13.6006026927043
228,13.1707867319259
229,12.8484248189068
230,12.4569853530978
231,12.1039223822582
232,11.7892356761295
233,11.4591985562199
234,11.1560247755562
235,10.8720393575064
236,10.6072420718121
237,10.3693081253637
238,10.1505625415292
239,9.93181695769482
240,9.71690909243487
241,9.52886456642086
242,9.34082027066535
243,9.1681263886908
244,9.03764649000163
245,8.88030325206654
246,8.77284920430731
247,8.65388223108312
248,8.51572712550348
249,8.40827330800276
250,8.30465697881803
251,8.21639106341425
252,8.13580058515946
253,8.0436971814397
254,7.93624336393898
255,7.8518151671097
256,7.79041282121035
257,7.71366006153005
258,7.64842022731473
259,7.53329097266502
260,7.4642134198752
261,7.39129814851089
262,7.29919474479112
263,7.1917406970319
264,7.10731273046112
265,7.01137160816687
266,6.94613177395154
267,6.85786585854776
268,6.74273660389806
269,6.66214612564327
270,6.55852979645854
271,6.44340054180884
272,6.30524543622919
273,6.19011618157949
274,6.08649985239476
275,5.97137059774506
276,5.85624134309535
277,5.73343688155517
278,5.59144405740104
279,5.44177602635642
280,5.30362092077678
281,5.15011540141619
282,5.01963550272702
283,4.87764267857288
284,4.72797464752827
285,4.58598205363264
286,4.48236572444791
287,4.32502225625431
288,4.20605551328863
289,4.08708854006443
290,3.95277115305928
291,3.82612897294461
292,3.69948679282994
293,3.59587046364521
294,3.47690349042101
295,3.37328716123628
296,3.28502147609101
297,3.16989222144131
298,3.07011338057256
299,3.00103582778274
300,2.897419498598
301,2.8245044574922
302,2.75158918612789
303,2.6671609892986
304,2.57505758557884
305,2.52900588371896
306,2.48295418185908
307,2.4369024799992
308,2.38317557124884
309,2.34479907627943
310,2.2833969606386
311,2.23734525877872
312,2.16059226883991
313,2.12221600412902
314,2.09919015319907
315,2.06465137680416
316,2.01859967494428
317,1.96103504761943
318,1.92265855265003
319,1.89963270172009
320,1.83439286750476
321,1.8152045048908
322,1.76531531471494
323,1.73077653832003
324,1.7000752502411
325,1.67704939931116
326,1.63867313460027
327,1.5849459955914
328,1.59645892105637
329,1.56959558181044
330,1.53121908684104
331,1.5081932359111
332,1.49284259187164
333,1.46214153405122
334,1.40073918815187
335,1.38155105579643
336,1.37387584890595
337,1.35852520486649
338,1.32014870989708
339,1.29712285896714
340,1.28177244518619
341,1.23572074332631
342,1.21653238071235
343,1.18966904146643
344,1.18966904146643
345,1.17431839742696
346,1.1589677533875
347,1.13210441414158
348,1.13210441414158
349,1.11675377010211
350,1.09756563774666
351,1.06302686135175
352,1.04767621731229
353,1.04000101042181
354,1.02848808495684
355,1.02465036638235
356,1.00929972234289
357,0.986273871412947
358,0.967085739057499
359,0.936384681237082
360,0.909521111732648
361,0.894170467693185
362,0.894170467693185
363,0.898008186267676
364,0.871144616763244
365,0.85579420298229
366,0.85579420298229
367,0.83276835205235
368,0.817417708012886
369,0.828930633477859
370,0.821255426587379
371,0.786716650192469
372,0.790554138508452
373,0.809742501122409
374,0.779041213043482
375,0.767528287578512
376,0.752177873797558
377,0.744502436648572
378,0.748340155223065
379,0.744502436648572
380,0.721476585718631
381,0.706126171937677
382,0.683100321007737
383,0.667749676968273
384,0.660074470077796
385,0.65239903292881
386,0.656236751503303
387,0.644723826038333
388,0.644723826038333
389,0.621697975108392
390,0.621697975108392
391,0.606347331068929
392,0.575646273248511
393,0.598672124178454
394,0.590996917287975
395,0.544945215428094
396,0.567971066358037
397,0.556458140893064
398,0.556458140893064
399,0.556458140893064
400,0.541107496853601
401,0.533432289963121
402,0.533432289963124
403,0.525756852814137
404,0.514243927349167
405,0.525756852814137
406,0.510406439033183
407,0.502731001884197
408,0.49505579499372
409,0.479705150954257
410,0.491218076419227
411,0.479705150954257
412,0.475867662638273
413,0.468192225489286
414,0.456679300024316
415,0.441328886243362
416,0.452841811708332
417,0.445166374559346
418,0.414465316738928
419,0.414465316738928
420,0.418303035313421
421,0.399114672699465
422,0.399114672699465
423,0.391439465808988
424,0.391439465808988
425,0.383764258918511
426,0.360738407988568
427,0.364575896304554
428,0.364575896304554
429,0.345387763949105
430,0.345387763949105
431,0.36073840798857
432,0.353062970839584
433,0.368413614879047
434,0.368413614879047
435,0.368413614879047
436,0.3492254825236
437,0.341550045374614
438,0.330037119909643
439,0.341550045374614
440,0.333874838484137
441,0.303173780663717
442,0.318524194444673
443,0.341550045374614
444,0.318524194444673
445,0.303173780663717
446,0.303173780663717
447,0.303173780663717
448,0.295498343514733
449,0.310848987554196
450,0.310848987554196
451,0.287823136624256
452,0.287823136624256
453,0.303173780663719
454,0.307011268979703
455,0.291660855198749
456,0.276310211159285
457,0.276310211159285
458,0.276310211159285
459,0.276310211159285
460,0.276310211159285
461,0.276310211159285
462,0.264797285694315
463,0.264797285694318
464,0.276310211159285
465,0.253284360229345
466,0.260959567119822
467,0.260959567119822
468,0.245609153338868
469,0.237933716189882
470,0.222583302408927
471,0.222583302408927
472,0.245609153338868
473,0.249446641654852
474,0.226420790724912
475,0.207232658369464
476,0.230258509299405
477,0.230258509299405
478,0.226420790724912
479,0.226420790724912
480,0.214907865259941
481,0.218745583834434
482,0.218745583834434
483,0.218745583834434
484,0.234096227873898
485,0.237933716189882
486,0.237933716189882
487,0.211070376943956
488,0.211070376943956
489,0.22642079072491
490,0.211070376943956
491,0.214907865259941
492,0.214907865259941
493,0.207232658369464
494,0.207232658369464
495,0.214907865259941
496,0.203394939794971
497,0.207232658369464
498,0.199557451478988
499,0.199557451478988
500,0.195719732904493
501,0.19188201433
502,0.188044526014017
503,0.188044526014017
504,0.199557451478988
505,0.188044526014017
506,0.176531600549046
507,0.176531600549046
508,0.176531600549046
509,0.176531600549046
510,0.176531600549046
511,0.176531600549046
512,0.176531600549046
513,0.176531600549046
514,0.176531600549046
515,0.168856163400059
516,0.168856163400059
517,0.161180956509583
518,0.153505749619105
519,0.176531600549046
520,0.176531600549046
521,0.176531600549046
522,0.168856163400061
523,0.168856163400061
524,0.168856163400061
525,0.138155105579643
526,0.130479898689166
527,0.130479898689166
528,0.138155105579643
529,0.138155105579643
530,0.138155105579643
531,0.138155105579643
532,0.130479898689166
533,0.115129254649702
534,0.115129254649702
535,0.115129254649702
536,0.115129254649702
537,0.130479898689166
538,0.115129254649702
539,0.115129254649702
540,0.115129254649702
541,0.118966973224197
542,0.118966973224197
543,0.107454047759226
544,0.130479898689166
545,0.130479898689166
546,0.122804461540179
547,0.14583031247012
548,0.14583031247012
549,0.12280446154018
550,0.12280446154018
551,0.12280446154018
552,0.12280446154018
553,0.12280446154018
554,0.12280446154018
555,0.12280446154018
556,0.12280446154018
557,0.12280446154018
558,0.12280446154018
559,0.0997786106102391
560,0.0997786106102391
561,0.107454047759226
562,0.107454047759226
563,0.115129254649702
564,0.107454047759226
565,0.0997786106102391
566,0.0997786106102391
567,0.11129153607521
568,0.11129153607521
569,0.0997786106102391
570,0.0959411222942557
571,0.103616329184732
572,0.115129254649702
573,0.118966973224197
574,0.11129153607521
575,0.11129153607521
576,0.103616329184732
577,0.103616329184732
578,0.0997786106102391
579,0.0997786106102391
580,0.0997786106102391
581,0.0997786106102391
582,0.0997786106102391
583,0.0997786106102391
584,0.0997786106102391
585,0.0959411222942557
586,0.0729152713643162
587,0.0767527596802996
588,0.0767527596802996
589,0.0767527596802996
590,0.0959411222942557
591,0.0959411222942557
592,0.0729152713643146
593,0.0729152713643146
594,0.0729152713643146
595,0.0729152713643146
596,0.049889420434375
597,0.0729152713643146
598,0.0729152713643146
599,0.084428196829285
600,0.0882656851452687
601,0.0882656851452687
602,0.0959411222942541
603,0.0690775527898218
604,0.076752759680298
605,0.076752759680298
606,0.0690775527898218
607,0.0614023458993439
608,0.0690775527898218
609,0.0690775527898218
610,0.0690775527898218
611,0.076752759680298
612,0.076752759680298
613,0.076752759680298
614,0.0690775527898218
615,0.0614023458993439
616,0.0614023458993439
617,0.0844281968292834
618,0.0921034037197614
619,0.076752759680298
620,0.076752759680298
621,0.084428196829285
622,0.0729152713643146
623,0.0652398342153275
624,0.076752759680298
625,0.0690775527898218
626,0.0690775527898218
627,0.076752759680298
628,0.0690775527898218
629,0.0614023458993439
630,0.0690775527898218
631,0.084428196829285
632,0.084428196829285
633,0.076752759680298
634,0.076752759680298
635,0.0614023458993439
636,0.0614023458993439
637,0.0422139832853864
638,0.0422139832853864
639,0.0537269087503568
640,0.0537269087503568
641,0.076752759680298
642,0.076752759680298
643,0.076752759680298
644,0.0614023458993439
645,0.0614023458993439
646,0.0614023458993439
647,0.0460517018598807
648,0.0652398342153275
649,0.084428196829285
650,0.076752759680298
651,0.076752759680298
652,0.076752759680298
653,0.076752759680298
654,0.076752759680298
655,0.084428196829285
656,0.0575646273248511
657,0.0729152713643146
658,0.0614023458993455
659,0.0383764949694043
660,0.0537269087503568
661,0.0652398342153275
662,0.0652398342153275
663,0.0537269087503568
664,0.042213983285388
665,0.042213983285388
666,0.049889420434375
667,0.0575646273248511
668,0.0652398342153275
669,0.0652398342153275
670,0.0537269087503568
671,0.0537269087503568
672,0.042213983285388
673,0.042213983285388
674,0.042213983285388
675,0.042213983285388
676,0.042213983285388
677,0.0575646273248511
678,0.0575646273248511
679,0.0690775527898202
680,0.0537269087503568
681,0.0307010578204173
682,0.0614023458993439
683,0.0614023458993439
684,0.0614023458993439
685,0.0614023458993439
686,0.0690775527898218
687,0.0460517018598807
688,0.0690775527898218
689,0.0690775527898218
690,0.0230258509299411
691,0.0230258509299411
692,0.0230258509299411
693,0.0230258509299395
694,0.0230258509299395
695,0.0307010578204173
696,0.03453877639491
697,0.0498894204343734
698,0.0767527596802996
699,0.0652398342153291
700,0.0307010578204173
701,0.0153506440394633
702,0.0307010578204173
703,0.0230258509299395
704,0.0230258509299411
705,0.0307010578204189
706,0.0230258509299411
707,0.076752759680298
708,0.0690775527898202
709,0.0307010578204173
710,0.0307010578204173
711,0.0383764949694043
712,0.0614023458993439
713,0.0537269087503568
714,0.0307010578204173
715,0.0268635695044339
716,0.0230258509299411
717,0.0307010578204173
718,0.0460517018598807
719,0.0307010578204173
720,0.0307010578204173
721,0.076752759680298
722,0.0191881323554468
723,0.0537269087503584
724,0.0307010578204173
725,0.0153506440394633
726,0.0268635695044339
727,0.0383764949694043
728,0.0191881323554468
729,0.0191881323554484
730,0.0307010578204173
731,0.03453877639491
732,0.0307010578204173
733,0.0230258509299395
734,0.0383764949694043
735,0.0729152713643146
736,0.049889420434375
737,0.0230258509299411
738,0.0307010578204173
739,0.0422139832853864
740,0.0307010578204173
741,0.0537269087503584
742,0.0460517018598807
743,0.0460517018598807
744,0.0460517018598807
745,0.03453877639491
746,0.0729152713643146
747,0.0614023458993439
748,0.03453877639491
749,0.03453877639491
750,0.0268635695044339
751,0.0230258509299395
752,0.03453877639491
753,0.03453877639491
754,0.0230258509299395
755,0.0153506440394633
756,0.0153506440394633
757,0.0153506440394633
758,0.0153506440394633
759,0.0153506440394633
760,0.0153506440394633
761,0.0153506440394633
762,0.0460517018598807
763,0.0153506440394633
764,0.0153506440394633
765,0
766,0.0230258509299395
767,0.0460517018598807
768,0.0383764949694043
769,0.042213983285388
770,0.0345387763949116
771,0.0307010578204189
772,0.0307010578204189
773,0.0383764949694043
774,0.0268635695044323
775,0.0268635695044323
776,0.0230258509299395
777,0.03453877639491
778,0.0460517018598807
779,0.0268635695044339
780,0.0307010578204173
781,0.0460517018598823
782,0.0460517018598823
783,0.0307010578204173
784,0.0230258509299411
785,0.0230258509299395
786,0.0268635695044339
787,0.0383764949694043
788,0.0460517018598807
789,0.042213983285388
790,0.0307010578204173
791,0.0268635695044339
792,0.0268635695044339
793,0.0383764949694043
794,0.042213983285388
795,0.0460517018598807
796,0.042213983285388
797,0.0383764949694027
798,0.0307010578204173
799,0.0307010578204173
800,0.0230258509299411
