Wavelength,Abs
200,21.4359159232281
201,20.8571995441975
202,19.7891838098799
203,18.8758250716761
204,18.0656988677738
205,17.3177424844082
206,16.6499928074399
207,16.0183169712705
208,15.3659178462383
209,14.7023895906244
210,14.0308022641592
211,13.344631906447
212,12.6461811025808
213,11.9427413566711
214,11.2147406954275
215,10.4575739716899
216,9.69733711914442
217,8.95974236869728
218,8.22598524472123
219,7.49069307936708
220,6.79531238128288
221,6.15365866102659
222,5.5699533399526
223,5.03728866278192
224,4.54300038847725
225,4.09246123093947
226,3.68605496202602
227,3.32838675192289
228,3.01293259418271
229,2.71513159649743
230,2.45071805963471
231,2.22621601306779
232,2.03279886525629
233,1.85895369073524
234,1.7027616762691
235,1.57803830938997
236,1.47442198020524
237,1.38078353510738
238,1.29980928499514
239,1.23226679660926
240,1.17662098251996
241,1.12826669556708
242,1.08873897712873
243,1.05343268004478
244,1.02695295147534
245,1.00354332868795
246,0.98205254216196
247,0.961713048182463
248,0.946362473220553
249,0.934082027066535
250,0.920266516508571
251,0.910672404279145
252,0.898391958125127
253,0.888797845895702
254,0.881122569927672
255,0.873447270933791
256,0.863469409872767
257,0.856561654593785
258,0.848502606768306
259,0.840827330800276
260,0.834687096210342
261,0.825476755838365
262,0.816266415466389
263,0.810509952733904
264,0.802450904908425
265,0.79669444217594
266,0.786716581114916
267,0.780192574667532
268,0.769063421060011
269,0.763690730184975
270,0.757550495595041
271,0.749875219627011
272,0.737594750447142
273,0.728000661243568
274,0.720325362249687
275,0.711115021877711
276,0.700753388959238
277,0.690391756040764
278,0.678111309886747
279,0.671203554607764
280,0.662760734924836
281,0.652015353174764
282,0.640502427709794
283,0.632059608026866
284,0.620162910704446
285,0.613255155425464
286,0.601358481128895
287,0.590613076352973
288,0.57986767157705
289,0.569889810516026
290,0.562982055237044
291,0.554539235554116
292,0.541875017542648
293,0.534583513432068
294,0.525373173060092
295,0.516930353377163
296,0.506952492316139
297,0.499277193322259
298,0.491218145496779
299,0.483926641386199
300,0.478170178653714
301,0.469727358970785
302,0.461284539287857
303,0.45245797077333
304,0.445933987351797
305,0.441328817165809
306,0.433653518171928
307,0.426745762892946
308,0.42175684387536
309,0.416384129974473
310,0.407173789602497
311,0.401801098727461
312,0.396044635994976
313,0.391823237666437
314,0.384915482387455
315,0.378007727108473
316,0.37493759830058
317,0.369181135568095
318,0.364192216550509
319,0.360354567053568
320,0.354598104321083
321,0.34807412089955
322,0.341933886309616
323,0.340015073074071
324,0.334642359173184
325,0.330804732702095
326,0.323129433708214
327,0.318908035379675
328,0.316605450286681
329,0.316605450286681
330,0.310465215696747
331,0.307778881772154
332,0.302789939728717
333,0.298184769542729
334,0.295498412592286
335,0.295114663760687
336,0.291277014263747
337,0.287439364766806
338,0.283217966438268
339,0.283217966438268
340,0.278996568109729
341,0.274775146755339
342,0.274007626066291
343,0.268634935191256
344,0.267099870787309
345,0.263645993147818
346,0.263262221290369
347,0.259424594819279
348,0.256738237868836
349,0.255586945322339
350,0.254051880918393
351,0.252900588371896
352,0.249062961900806
353,0.247911669354309
354,0.245225312403866
355,0.244457791714818
356,0.241387662906925
357,0.237550036435836
358,0.236782492720937
359,0.234863679485393
360,0.231409801845902
361,0.229490988610357
362,0.22833969606386
363,0.227188403517363
364,0.223734525877872
365,0.224502046566919
366,0.221815689616476
367,0.218745583834434
368,0.21644299874144
369,0.214907934337494
370,0.210302764151506
371,0.212221600412902
372,0.210302764151506
373,0.209535243462458
374,0.206848886512015
375,0.204546301419021
376,0.203395008872524
377,0.202627488183476
378,0.200324903090482
379,0.196487253593542
380,0.19725479730844
381,0.194952212215446
382,0.1934171478115
383,0.191882083407554
384,0.190347042029458
385,0.187276913221566
386,0.18535809998602
387,0.185358099986021
388,0.185358099986021
389,0.179217865396086
390,0.177299052160542
391,0.178066572849589
392,0.178450344707039
393,0.176531531471494
394,0.171926361285506
395,0.169623776192512
396,0.169623776192512
397,0.170391296881559
398,0.168856232477613
399,0.168088711788565
400,0.166169898553021
401,0.165402354838122
402,0.161564728367033
403,0.160413435820535
404,0.158878371416589
405,0.158110850727541
406,0.155040721919649
407,0.152738136826655
408,0.151586844280158
409,0.15081932359111
410,0.152738136826655
411,0.152354387995056
412,0.150435551733661
413,0.149668031044613
414,0.148516738498116
415,0.146214153405122
416,0.143527796454679
417,0.14314404762308
418,0.141992755076583
419,0.142376503908182
420,0.143911568312128
421,0.140841462530086
422,0.138538877437092
423,0.13930639812614
424,0.138538877437092
425,0.137003813033146
426,0.137003813033146
427,0.130863578443211
428,0.132398642847158
429,0.132398642847158
430,0.13163112215811
431,0.130479829611613
432,0.130096057754164
433,0.128177244518619
434,0.12740970080372
435,0.12740970080372
436,0.12740970080372
437,0.125107115710726
438,0.123572074332631
439,0.122804530617732
440,0.122037009928684
441,0.122037009928684
442,0.121653238071235
443,0.120501945524738
444,0.119350652978241
445,0.118966904146643
446,0.118966904146643
447,0.118583132289193
448,0.115513026507152
449,0.11589677533875
450,0.11589677533875
451,0.115129254649702
452,0.114745482792253
453,0.113594190245756
454,0.112826669556708
455,0.111675377010211
456,0.109756563774666
457,0.109756563774666
458,0.109372791917217
459,0.109372791917217
460,0.108605271228169
461,0.10822149937072
462,0.107453978681672
463,0.105918914277726
464,0.105918914277726
465,0.103232557327283
466,0.102465036638235
467,0.102465036638235
468,0.102465036638235
469,0.101313744091738
470,0.10054622340269
471,0.10054622340269
472,0.099011158998744
473,0.0997786796877917
474,0.0997786796877917
475,0.097859866452247
476,0.097859866452247
477,0.098243638309696
478,0.0967085739057499
479,0.0959410532167022
480,0.0959410532167022
481,0.0959410532167022
482,0.0951735095018036
483,0.0963248020483006
484,0.0955572813592529
485,0.0924871755772111
486,0.0917196318623125
487,0.0921034037197618
488,0.0921034037197618
489,0.0905683393158155
490,0.0905683393158155
491,0.0898008186267678
492,0.0890332979377201
493,0.0890332979377201
494,0.0874982335337737
495,0.0898008186267678
496,0.0874982335337737
497,0.0867307128447258
498,0.0851956484407795
499,0.0851956484407795
500,0.0863469409872767
501,0.0848118765833304
502,0.084428127751732
503,0.083276835205235
504,0.0805904782547916
505,0.0821255426587379
506,0.0828930633477857
507,0.083276835205235
508,0.0809742501122409
509,0.0809742501122409
510,0.0825092914903363
511,0.0805904782547916
512,0.0794391857082946
513,0.0798229575657439
514,0.0786716650192469
515,0.0786716650192469
516,0.0771366006153005
517,0.0771366006153005
518,0.0763690799262528
519,0.0763690799262528
520,0.0763690799262528
521,0.0763690799262528
522,0.0763690799262528
523,0.0756015362113542
524,0.0748340155223065
525,0.0756015362113542
526,0.0748340155223065
527,0.0732989511183601
528,0.0740664948332588
529,0.0748340155223065
530,0.0736827229758095
531,0.0717639097402647
532,0.0709963660253661
533,0.0702288453363184
534,0.0717639097402647
535,0.0740664948332588
536,0.0686937809323721
537,0.0660074470077796
538,0.0648561544612826
539,0.0648561544612826
540,0.0617860256533899
541,0.0633210900573363
542,0.0617860256533899
543,0.0614022768217915
544,0.0640886107463842
545,0.0640886107463842
546,0.0640886107463842
547,0.0640886107463842
548,0.0640886107463842
549,0.0579483991823005
550,0.0579483991823005
551,0.0606347331068929
552,0.0594834405603959
553,0.0594834405603959
554,0.0594834405603959
555,0.0587159198713482
556,0.0587159198713482
557,0.0579483991823005
558,0.0571808554674018
559,0.0567971066358034
560,0.0560295629209048
561,0.0571808554674018
562,0.0571808554674018
563,0.0571808554674018
564,0.0560295629209048
565,0.0560295629209048
566,0.0560295629209048
567,0.0548782703744078
568,0.0537269778279108
569,0.0552620422318571
570,0.0560295629209048
571,0.0548782703744078
572,0.0541107496853601
573,0.0510406439033183
574,0.0510406439033183
575,0.0510406439033183
576,0.0514243927349167
577,0.0514243927349167
578,0.0514243927349167
579,0.0498893513568213
580,0.049505579499372
581,0.0498893513568213
582,0.051808164592366
583,0.0491218076419227
584,0.0487380588103243
585,0.0510406439033186
586,0.049505579499372
587,0.0491218076419224
588,0.0479705150954257
589,0.049505579499372
590,0.0464354737173302
591,0.0464354737173302
592,0.0472029944063779
593,0.0456679300024316
594,0.0475867662638273
595,0.0468192225489288
596,0.0479705150954257
597,0.0472029944063779
598,0.0445166374559346
599,0.0437491167668869
600,0.0422140523629405
601,0.0441328886243362
602,0.0445166374559346
603,0.0429815960778392
604,0.0449004093133839
605,0.0425978242203899
606,0.0410627598164435
607,0.0418303035313421
608,0.0418303035313421
609,0.0418303035313421
610,0.0410627598164435
611,0.0406790109848451
612,0.0402952391273958
613,0.0414465316738928
614,0.0422140523629405
615,0.0410627598164435
616,0.0410627598164435
617,0.0391439465808988
618,0.0391439465808988
619,0.0399114672699465
620,0.0383764258918511
621,0.0406790109848454
622,0.0391439465808988
623,0.0391439465808988
624,0.0422140523629408
625,0.0422140523629408
626,0.0406790109848451
627,0.0383764258918511
628,0.0391439465808988
629,0.0406790109848454
630,0.0391439465808988
631,0.0399114672699465
632,0.0372251333453541
633,0.036073840798857
634,0.036073840798857
635,0.0376088821769524
636,0.0364575896304554
637,0.036073840798857
638,0.0368413614879047
639,0.0379926540344018
640,0.0379926540344018
641,0.0368413614879047
642,0.0372251333453541
643,0.0376088821769524
644,0.0356900689414077
645,0.0360738407988568
646,0.0364575896304554
647,0.0364575896304554
648,0.0364575896304556
649,0.0372251333453541
650,0.0368413614879047
651,0.0372251333453541
652,0.0364575896304554
653,0.0341550045374614
654,0.0341550045374614
655,0.0356900689414077
656,0.0360738407988568
657,0.0356900689414077
658,0.0349225482523602
659,0.032619963159366
660,0.0341550045374614
661,0.0356900689414077
662,0.0353062970839584
663,0.0353062970839584
664,0.0330037119909641
665,0.0330037119909641
666,0.0333874838484137
667,0.032619963159366
668,0.032619963159366
669,0.0314686706128689
670,0.033771255705863
671,0.0330037119909643
672,0.0314686706128689
673,0.0322361913019166
674,0.0310848987554196
675,0.0299336062089226
676,0.0310848987554196
677,0.0318524194444673
678,0.0330037119909641
679,0.0307011268979703
680,0.0307011268979703
681,0.0310848987554196
682,0.0322361913019166
683,0.0283985418049763
684,0.0307011268979705
685,0.0314686706128689
686,0.032619963159366
687,0.0310848987554196
688,0.0307011268979703
689,0.0287823136624256
690,0.032619963159366
691,0.0307011268979705
692,0.0330037119909643
693,0.0318524194444673
694,0.0303173780663719
695,0.0287823136624253
696,0.0310848987554196
697,0.0291660855198749
698,0.0295498343514733
699,0.0283985418049763
700,0.0291660855198749
701,0.0291660855198751
702,0.0299336062089226
703,0.0283985418049763
704,0.0295498343514733
705,0.0287823136624256
706,0.0299336062089226
707,0.0276310211159283
708,0.0283985418049763
709,0.0299336062089226
710,0.0283985418049763
711,0.0268635004268811
712,0.0299336062089226
713,0.0303173780663717
714,0.0287823136624256
715,0.0291660855198749
716,0.027247249258479
717,0.0264797285694315
718,0.0249446641654854
719,0.0234096227873898
720,0.0234096227873898
721,0.0237933716189882
722,0.0260959567119822
723,0.024944664165485
724,0.0218745583834436
725,0.0234096227873898
726,0.0230258509299405
727,0.021490786525994
728,0.0218745583834436
729,0.0226420790724912
730,0.0211070376943956
731,0.021107037694396
732,0.0214907865259937
733,0.0195719732904498
734,0.0184206807439523
735,0.0149668031044616
736,0.013815510557964
737,0.0149668031044609
738,0.0145830312470123
739,0.013815510557964
740,0.0130479898689164
741,0.0161180956509578
742,0.0157343237935092
743,0.0157343237935085
744,0.0161180956509585
745,0.0153505749619102
746,0.0153505749619108
747,0.0161180956509585
748,0.0153505749619108
749,0.0145830312470117
750,0.0176531600549046
751,0.0165018675084077
752,0.0157343237935092
753,0.018036908886503
754,0.018036908886503
755,0.0203394939794968
756,0.0203394939794968
757,0.0195719732904492
758,0.018036908886503
759,0.0188044526014015
760,0.0176531600549046
761,0.0214907865259937
762,0.0237933716189882
763,0.0241771434764379
764,0.0264797285694311
765,0.0257122078803843
766,0.0257122078803843
767,0.0272472492584788
768,0.0241771434764379
769,0.0222583302408928
770,0.0241771434764375
771,0.0268635004268811
772,0.0268635004268811
773,0.0268635004268804
774,0.0291660855198749
775,0.0276310211159281
776,0.0276310211159288
777,0.0264797285694318
778,0.0287823136624256
779,0.0283985418049758
780,0.0280147929733774
781,0.0280147929733779
782,0.0291660855198749
783,0.0280147929733779
784,0.0291660855198749
785,0.0287823136624256
786,0.0283985418049763
787,0.0303173780663717
788,0.0291660855198749
789,0.0310848987554194
790,0.0314686706128687
791,0.0307011268979701
792,0.0299336062089226
793,0.0303173780663717
794,0.0299336062089226
795,0.0314686706128694
796,0.0314686706128687
797,0.0303173780663717
798,0.0276310211159288
799,0.0299336062089226
800,0.0310848987554194
