Wavelength,Abs
200,14.7158213293249
201,14.4226254787998
202,13.8592596747312
203,13.3335027298136
204,12.8353768290379
205,12.364114428689
206,11.9511841533281
207,11.585840667257
208,11.2343126687179
209,10.9004378302338
210,10.5934264691507
211,10.3079059406453
212,10.0346658352681
213,9.77063607026278
214,9.51351408356235
215,9.27020758439403
216,9.03687894628673
217,8.8181333624523
218,8.61090070408283
219,8.40904075961426
220,8.21792619689575
221,8.03525445386017
222,7.86486315697861
223,7.70444972115808
224,7.55017651992748
225,7.40511365906885
226,7.26081831889927
227,7.12803592722052
228,7.00062620339095
229,6.86784381171219
230,6.73966656719357
231,6.61762955726489
232,6.49943019683314
233,6.37816070759351
234,6.26303145294381
235,6.15711253866608
236,6.05579879457434
237,5.95909022066859
238,5.86468423185583
239,5.77565093391812
240,5.69506045566332
241,5.61984266828357
242,5.5476950097117
243,5.47708241554379
244,5.41644765941104
245,5.36195316089408
246,5.31052874513332
247,5.26294197886949
248,5.21765782072451
249,5.17314118326857
250,5.13322971599863
251,5.09408574639188
252,5.05417427912193
253,5.01733291763403
254,4.98125907683517
255,4.94595277975121
256,4.90680883317031
257,4.8715025130605
258,4.82928846069756
259,4.7939821636136
260,4.75407067331781
261,4.71032155655092
262,4.66733998349893
263,4.62128828163905
264,4.57293399468618
265,4.5245797077333
266,4.47238777128349
267,4.41942831414462
268,4.36493381562766
269,4.30967177339581
270,4.25133960235606
271,4.19147238993821
272,4.13083765683132
273,4.06943540303538
274,4.00419547671665
275,3.94049063782771
276,3.87985588169497
277,3.81461597840209
278,3.74553842561226
279,3.67646084979659
280,3.60508071191378
281,3.53370059705681
282,3.46769315004903
283,3.39861559725921
284,3.33107310887334
285,3.26276307677256
286,3.19752315045383
287,3.1338183115649
288,3.06781088758297
289,3.00257096126424
290,2.9380985786604
291,2.8797664306465
292,2.82066673891771
293,2.76540469668585
294,2.707840069361
295,2.65718319731513
296,2.60882891036225
297,2.55893955900543
298,2.5136553778346
299,2.46913874037866
300,2.42538964663763
301,2.38087298615584
302,2.33712386938896
303,2.29874744349711
304,2.25806845553811
305,2.21815698826817
306,2.17978053935046
307,2.13833400767657
308,2.1060978394005
309,2.0692564779126
310,2.03548522220674
311,2.00324903090482
312,1.9710128396029
313,1.93724160692289
314,1.90807552140302
315,1.8758393301011
316,1.84360313879918
317,1.81597211768325
318,1.78603848844848
319,1.75533738457636
320,1.72770636346043
321,1.70084286303355
322,1.67321181889177
323,1.6448132770868
324,1.61871732037481
325,1.59338888435188
326,1.566525383925
327,1.54119694790206
328,1.51740357628308
329,1.49437772535314
330,1.4698168330451
331,1.44525591771121
332,1.42299758747032
333,1.40227432163337
334,1.38308612020037
335,1.36389789574152
336,1.34010452412253
337,1.31707867319259
338,1.29789047175959
339,1.28100483239374
340,1.26028158958264
341,1.23955830071984
342,1.2165324497899
343,1.19811176904595
344,1.18045860899105
345,1.16203795127295
346,1.14438479121804
347,1.12596411047409
348,1.10984601482313
349,1.09526298357612
350,1.07991240861421
351,1.06302676924835
352,1.04844373800134
353,1.03386070675433
354,1.01851013179242
355,1.00469462123445
356,0.988576548609344
357,0.973225973647434
358,0.959410463089469
359,0.945594929505654
360,0.934082027066535
361,0.919498972793672
362,0.903380877142714
363,0.892635472366791
364,0.880355049238624
365,0.865004474276713
366,0.851188940692898
367,0.83890849453888
368,0.825093007006767
369,0.814347602230844
370,0.801299612361928
371,0.78901916620791
372,0.776738697028041
373,0.765225771563071
374,0.753712869123952
375,0.742967441322178
376,0.736059709069047
377,0.725314304293124
378,0.713801378828154
379,0.703055974052232
380,0.692310569276309
381,0.683100228904333
382,0.672354847154261
383,0.660841921689291
384,0.65009653993922
385,0.640118655852345
386,0.630908315480369
387,0.62246549579744
388,0.613255155425464
389,0.60327729436444
390,0.595601995370559
391,0.584856613620488
392,0.578716402056404
393,0.569506038658577
394,0.561063242001499
395,0.554923007411565
396,0.544945146350541
397,0.534967262263666
398,0.526524465606589
399,0.520384231016654
400,0.512708932022774
401,0.504266135365696
402,0.497358380086714
403,0.490450624807732
404,0.482775348839702
405,0.475100049845821
406,0.472029944063779
407,0.465122188784797
408,0.458214433505815
409,0.451306678226833
410,0.445933964325946
411,0.439793752761863
412,0.432885997482881
413,0.428280827296892
414,0.42137307201791
415,0.412930275360833
416,0.408325082148994
417,0.404487455677904
418,0.399114741777018
419,0.393742050901982
420,0.386834295623
421,0.382229125437012
422,0.376856434561976
423,0.372251241350137
424,0.368413614879047
425,0.364575988407958
426,0.358435753818023
427,0.354598104321083
428,0.349225390420196
429,0.344620243260059
430,0.338480008670125
431,0.335409902888083
432,0.33233977408019
433,0.327734603894202
434,0.325432018801208
435,0.321594392330119
436,0.318524286548077
437,0.312384028932292
438,0.310081466865148
439,0.307778881772154
440,0.30163864718222
441,0.29780099768528
442,0.294730891903238
443,0.292428306810244
444,0.289358201028202
445,0.286288072220309
446,0.285520551531262
447,0.280915381345274
448,0.276310211159286
449,0.273240105377244
450,0.27093752028425
451,0.267867414502208
452,0.266332350098262
453,0.262494700601321
454,0.258657051104381
455,0.257122009726285
456,0.254051880918393
457,0.251749295825399
458,0.248679190043357
459,0.245609084261315
460,0.243306499168321
461,0.241003914075327
462,0.239468849671381
463,0.234863679485393
464,0.231026029988452
465,0.229490988610357
466,0.226420859802464
467,0.225653339113416
468,0.221815689616476
469,0.220280648238381
470,0.217978040119536
471,0.217210542456339
472,0.213372892959399
473,0.210302764151506
474,0.210302764151506
475,0.210302764151506
476,0.206465137680416
477,0.204162552587422
478,0.200324903090482
479,0.19725479730844
480,0.196487253593542
481,0.195719732904494
482,0.194952212215446
483,0.192649627122452
484,0.187276913221565
485,0.188044433910613
486,0.185741848817619
487,0.184206807439524
488,0.181136701657482
489,0.180369157942583
490,0.180369157942583
491,0.178834093538637
492,0.174996467067547
493,0.174228923352649
494,0.173461402663601
495,0.171158817570607
496,0.167321168073667
497,0.168088711788565
498,0.167321168073667
499,0.165018606006524
500,0.165018606006524
501,0.160413435820535
502,0.160413435820535
503,0.159645892105637
504,0.158878371416589
505,0.157343307012643
506,0.155808265634547
507,0.153505657515702
508,0.152738136826655
509,0.150435551733661
510,0.148132966640667
511,0.146597925262571
512,0.145062860858625
513,0.144295340169577
514,0.143527796454679
515,0.140457690672637
516,0.141225211361685
517,0.140457690672637
518,0.138155105579643
519,0.138155105579643
520,0.135084999797601
521,0.135084999797601
522,0.135084999797601
523,0.133549935393655
524,0.131247350300661
525,0.131247350300661
526,0.128944765207667
527,0.128944765207667
528,0.12740970080372
529,0.125874659425625
530,0.126642180114673
531,0.125107138736577
532,0.124339595021678
533,0.122037009928685
534,0.121269489239637
535,0.120501945524738
536,0.11973442483569
537,0.118199360431744
538,0.115896798364601
539,0.112826669556708
540,0.113594190245756
541,0.113594213271607
542,0.112826669556708
543,0.11205912584181
544,0.109756563774666
545,0.109756563774666
546,0.10822149937072
547,0.10822149937072
548,0.10822149937072
549,0.107453955655822
550,0.106686434966774
551,0.105918914277726
552,0.105918914277726
553,0.105918914277726
554,0.104383872899631
555,0.104383872899631
556,0.103616329184732
557,0.102848785469833
558,0.102848785469833
559,0.101313744091738
560,0.102081287806637
561,0.0990111589987442
562,0.0990111589987442
563,0.0974760945947979
564,0.0967085739057499
565,0.0974761176206486
566,0.0974761176206486
567,0.0959410532167022
568,0.0944059888127559
569,0.0936384681237082
570,0.0928709474346605
571,0.0928709474346605
572,0.0921034037197618
573,0.0898008186267678
574,0.0898008186267678
575,0.0905683393158155
576,0.0882657772486724
577,0.0867307128447258
578,0.084428127751732
579,0.0851956484407797
580,0.0844281277517322
581,0.084428127751732
582,0.0821255426587379
583,0.0821255426587379
584,0.0813579989438393
585,0.0798229575657439
586,0.0805904782547916
587,0.0821255426587379
588,0.0790554138508452
589,0.0782878931617975
590,0.0767528287578512
591,0.0759853080688035
592,0.0736827229758095
593,0.0752177643539049
594,0.0752177873797556
595,0.0767528287578512
596,0.0736827229758095
597,0.0744502436648572
598,0.0744502436648572
599,0.0729152022867618
600,0.0736827229758095
601,0.0729151792609108
602,0.0736827229758095
603,0.0752177643539049
604,0.0729151792609111
605,0.0706125941679168
606,0.0698450734788691
607,0.0698450734788691
608,0.0706126171937677
609,0.0706126171937677
610,0.0690775527898214
611,0.067542488385875
612,0.0690775527898214
613,0.0683100090749227
614,0.067542488385875
615,0.067542488385875
616,0.0667749676968273
617,0.0637048388889346
618,0.0637048388889346
619,0.0629373412257379
620,0.0621697975108392
621,0.0637048388889344
622,0.0644723826038333
623,0.0644723826038333
624,0.0637048619147856
625,0.0637048619147856
626,0.0652399263187319
627,0.0644723826038333
628,0.0637048619147856
629,0.0629373181998869
630,0.0621697975108392
631,0.0621697975108392
632,0.0629373412257379
633,0.0614022768217915
634,0.0606347561327436
635,0.0598672124178452
636,0.0583321710397498
637,0.0590996687029466
638,0.0598672124178452
639,0.0567971066358034
640,0.0552620422318571
641,0.0560295629209048
642,0.0552620422318571
643,0.0544945215428094
644,0.0544944985169585
645,0.0521919134239644
646,0.0514244157607676
647,0.0529594571388631
648,0.0537269778279108
649,0.050656872045869
650,0.0491218076419227
651,0.0498893283309704
652,0.0491218306677736
653,0.0498893513568213
654,0.048354286952875
655,0.050656872045869
656,0.0498893513568213
657,0.0475867432379763
658,0.0491218076419227
659,0.0491218076419227
660,0.0491218076419224
661,0.048354286952875
662,0.0498893283309704
663,0.0498893513568213
664,0.0498893283309704
665,0.0498893513568213
666,0.048354286952875
667,0.048354286952875
668,0.0498893513568213
669,0.0514243927349167
670,0.050656872045869
671,0.0491218076419227
672,0.0491218076419227
673,0.0491218076419227
674,0.048354286952875
675,0.048354286952875
676,0.0468192225489286
677,0.0452841811708332
678,0.0429815730519882
679,0.0429815960778392
680,0.0422140523629408
681,0.0437491167668869
682,0.0445166374559346
683,0.0429815960778392
684,0.0414465316738928
685,0.0406790109848451
686,0.0414465316738928
687,0.0422140523629405
688,0.0414465316738928
689,0.0406790109848451
690,0.0406789879589942
691,0.0399114902957974
692,0.0383764258918511
693,0.0406790109848451
694,0.0391439465808988
695,0.0406790109848451
696,0.0391439465808988
697,0.0368413614879047
698,0.0391439465808988
699,0.0406789879589942
700,0.0399114672699465
701,0.0399114902957974
702,0.0391439465808988
703,0.0368413614879047
704,0.0376089052028034
705,0.0353063201098093
706,0.0353062970839584
707,0.0368413614879047
708,0.0368413614879047
709,0.0368413614879045
710,0.0360738407988568
711,0.0360738407988568
712,0.0353063201098093
713,0.0391439465808986
714,0.039143946580899
715,0.0383764028660004
716,0.0383764258918513
717,0.0406790109848451
718,0.0414465316738931
719,0.0422140523629403
720,0.0406790109848451
721,0.0391439465808986
722,0.0414465316738928
723,0.0406790109848451
724,0.0422140523629408
725,0.0429815960778392
726,0.0406789879589942
727,0.0422140753887917
728,0.0422140753887917
729,0.0452841581449825
730,0.0460517018598809
731,0.0468192455747795
732,0.047586766263827
733,0.0483542869528754
734,0.0491218076419224
735,0.047586766263827
736,0.047586766263827
737,0.0491218076419224
738,0.0475867662638277
739,0.0475867432379761
740,0.0491218076419224
741,0.0460517018598809
742,0.0437491167668866
743,0.0445166374559348
744,0.0429815730519887
745,0.0437491167668871
746,0.044516660481785
747,0.0452841811708334
748,0.0468192225489293
749,0.0468192455747795
750,0.0475867432379761
751,0.0468192225489286
752,0.0475867432379761
753,0.0452841811708334
754,0.0460517018598809
755,0.047586766263827
756,0.0452841811708334
757,0.0460517018598809
758,0.0468192225489293
759,0.0475867662638277
760,0.047586766263827
761,0.0460517018598809
762,0.0452841811708334
763,0.0437491167668871
764,0.0399114672699465
765,0.0391439465808983
766,0.0406789879589942
767,0.039143946580899
768,0.0376089052028036
769,0.0429815960778389
770,0.0422140523629403
771,0.0429815960778389
772,0.0452841811708334
773,0.042214052362941
774,0.0422140523629403
775,0.0429815960778396
776,0.0429815960778389
777,0.0422140523629403
778,0.0445166604817857
779,0.0483542869528747
780,0.0475867432379761
781,0.0498893283309699
782,0.0475867432379761
783,0.0491218076419231
784,0.0498893283309699
785,0.0498893513568215
786,0.0483542869528754
787,0.0483542869528747
788,0.0514244157607676
789,0.0521919364498153
790,0.0506568720458692
791,0.0537269778279105
792,0.0567970836099527
793,0.056029562920905
794,0.0560295629209043
795,0.0567971066358037
796,0.056029562920905
797,0.0567971066358037
798,0.0567971066358037
799,0.0575646273248511
800,0.0560295859467557
