Wavelength,Abs
200,36.4069404260179
201,34.7467765739692
202,31.7311576458619
203,29.2528085420854
204,27.1405704911208
205,25.3207607469665
206,23.8355933619853
207,22.5538209858767
208,21.3303807808078
209,20.1959738506508
210,19.1383197722775
211,18.1228797462671
212,17.1243253365967
213,16.1280735120193
214,15.1157036148169
215,14.1002635888065
216,13.0971040089501
217,12.1422987160466
218,11.205914126913
219,10.2633892801635
220,9.37075380779672
221,8.53645046041798
222,7.77736492344484
223,7.08044916095669
224,6.44109802579339
225,5.87005692273087
226,5.35197527680721
227,4.90297118367337
228,4.5069265476784
229,4.13697789142125
230,3.80463809431521
231,3.5183500220949
232,3.27811365173447
233,3.05860052418514
234,2.86441585568459
235,2.70323489917501
236,2.56584731428441
237,2.44841547454172
238,2.34249656026399
239,2.25883597622716
240,2.1866883176553
241,2.12144839133656
242,2.06311624332267
243,2.01552947705884
244,1.97178036029195
245,1.934171478115
246,1.90193528681308
247,1.86893157482212
248,1.84437065948823
249,1.82134480855829
250,1.79524885184631
251,1.77222300091637
252,1.74842960627153
253,1.73000892552758
254,1.71312330918757
255,1.68932993756858
256,1.66860667173164
257,1.65172103236578
258,1.63637048042972
259,1.61564721459277
260,1.59415640504093
261,1.57496820360793
262,1.55347741708193
263,1.53352167193403
264,1.51586851187913
265,1.49514524604218
266,1.47595704460918
267,1.45446625808319
268,1.43144040715325
269,1.41378724709834
270,1.38999387547936
271,1.3708056510205
272,1.34701227940152
273,1.32475394916062
274,1.29942551313769
275,1.27716720592265
276,1.25721146077475
277,1.23418560984481
278,1.21269482331881
279,1.18966897238887
280,1.16587557774403
281,1.141314685436
282,1.11752129079116
283,1.09142533407918
284,1.07300465333523
285,1.05151386680923
286,1.02772047216439
287,1.0039271005454
288,0.980901249615464
289,0.961713048182463
290,0.939454717941571
291,0.921801557886666
292,0.904148420857612
293,0.88572774011366
294,0.866539515654809
295,0.849653899314803
296,0.828930633477856
297,0.81588264360894
298,0.798229506579886
299,0.780576346524982
300,0.762923186470077
301,0.748340155223065
302,0.734524644665101
303,0.724546783604077
304,0.709196208642166
305,0.693845633680255
306,0.677727538029297
307,0.661609442378339
308,0.645491346727381
309,0.636281006355404
310,0.627070665983428
311,0.61479021982941
312,0.604044815053488
313,0.590996848210422
314,0.576413793937559
315,0.564133347783541
316,0.554155486722517
317,0.544945146350541
318,0.532664677170672
319,0.522686816109648
320,0.515011540141619
321,0.501196029583654
322,0.495823315682768
323,0.484310390217797
324,0.474332529156773
325,0.462819603691803
326,0.452841742630779
327,0.445166443636899
328,0.434421061886827
329,0.429815891700839
330,0.425210721514851
331,0.411395210956886
332,0.405254976366952
333,0.40218487058491
334,0.393742050901982
335,0.385299231219053
336,0.376088890847077
337,0.372251264375988
338,0.36764609419
339,0.359203274507071
340,0.353830583632035
341,0.348457869731149
342,0.345387763949107
343,0.338480008670125
344,0.333874838484137
345,0.326967083205154
346,0.322361913019166
347,0.315454157740184
348,0.310081466865148
349,0.308546402461202
350,0.302406167871268
351,0.298568541400178
352,0.294730891903238
353,0.288590657313303
354,0.283985487127315
355,0.280147860656226
356,0.276310211159286
357,0.273240105377244
358,0.268634935191256
359,0.267867391476357
360,0.262494700601321
361,0.258657051104381
362,0.253284360229345
363,0.253284360229345
364,0.247911669354309
365,0.242538955453423
366,0.236398743889339
367,0.234863679485393
368,0.228723444895458
369,0.22411827470947
370,0.220280648238381
371,0.21644299874144
372,0.214140413648446
373,0.20876772277341
374,0.20493007327647
375,0.20109242377953
376,0.20109242377953
377,0.196487253593542
378,0.194184668500548
379,0.191882083407554
380,0.187276913221565
381,0.188044456936464
382,0.183439286750476
383,0.182671743035577
384,0.179601637253536
385,0.175763987756595
386,0.1742289463785
387,0.170391296881559
388,0.166553647384619
389,0.164251062291625
390,0.163483541602577
391,0.158878371416589
392,0.156575786323595
393,0.158878371416589
394,0.155040721919649
395,0.153505680541553
396,0.150435551733661
397,0.148132966640667
398,0.146597925262571
399,0.145062860858625
400,0.140457690672637
401,0.13892262626869
402,0.136620041175696
403,0.135084999797601
404,0.132014870989708
405,0.129712285896714
406,0.128944765207667
407,0.128177244518619
408,0.125874659425625
409,0.125107115710726
410,0.123572074332631
411,0.11973442483569
412,0.121269489239637
413,0.118199360431744
414,0.11589677533875
415,0.114361733960655
416,0.112826669556708
417,0.112059148867661
418,0.111291605152762
419,0.106686434966774
420,0.105151393588678
421,0.105151393588678
422,0.107453978681672
423,0.107453978681673
424,0.10438384987378
425,0.102081264780786
426,0.102081264780786
427,0.102081264780786
428,0.101313744091738
429,0.0997786796877917
430,0.0990111589987442
431,0.0967085739057499
432,0.0944059888127559
433,0.0928709244088095
434,0.0921034037197618
435,0.0905683393158155
436,0.0905683393158155
437,0.0898008186267678
438,0.086730712844726
439,0.0859631691298274
440,0.0859631691298274
441,0.086730712844726
442,0.0859631691298274
443,0.0836605840368334
444,0.0836605840368334
445,0.0798229575657439
446,0.0798229575657439
447,0.0828930633477857
448,0.0790554138508452
449,0.0782878931617975
450,0.0782878931617975
451,0.0744502436648572
452,0.0752177873797558
453,0.0744502436648572
454,0.0744502436648572
455,0.0744502436648572
456,0.0729152022867618
457,0.0721476585718631
458,0.0698450734788691
459,0.0706126171937677
460,0.0706126171937677
461,0.0683100321007737
462,0.0667749676968273
463,0.0644723826038333
464,0.0629373181998869
465,0.065239903292881
466,0.0644723826038333
467,0.0621697975108392
468,0.0629373181998869
469,0.0583321480138989
470,0.0621697975108392
471,0.0621697975108392
472,0.0621697975108392
473,0.0590996917287975
474,0.0590996917287975
475,0.0590996917287975
476,0.0590996917287975
477,0.0590996917287975
478,0.0575646273248511
479,0.0560295629209048
480,0.0544945215428094
481,0.0544945215428094
482,0.0544945215428094
483,0.0537269778279108
484,0.0521919364498153
485,0.0521919364498153
486,0.0521919364498153
487,0.0514243927349167
488,0.050656872045869
489,0.050656872045869
490,0.050656872045869
491,0.0491218076419227
492,0.0491218076419227
493,0.0491218076419227
494,0.0491218076419227
495,0.0468192225489288
496,0.0491218076419227
497,0.0498893513568213
498,0.0475867662638273
499,0.050656872045869
500,0.050656872045869
501,0.0460517018598809
502,0.0460517018598809
503,0.0460517018598809
504,0.0429815960778392
505,0.0429815960778392
506,0.0437491167668869
507,0.0437491167668869
508,0.0437491167668869
509,0.0437491167668869
510,0.0414465316738928
511,0.0399114672699465
512,0.0368413614879047
513,0.0368413614879047
514,0.0391439465808988
515,0.0383764258918511
516,0.0376088821769524
517,0.0383764258918511
518,0.0383764258918511
519,0.0383764258918511
520,0.036073840798857
521,0.036073840798857
522,0.0368413614879047
523,0.0376088821769524
524,0.0353062970839584
525,0.0345387763949107
526,0.0345387763949107
527,0.0345387763949107
528,0.0345387763949107
529,0.0353062970839584
530,0.036073840798857
531,0.036073840798857
532,0.036073840798857
533,0.0353062970839584
534,0.0345387763949107
535,0.0322361913019169
536,0.0322361913019169
537,0.033771255705863
538,0.0345387763949107
539,0.0345387763949107
540,0.0345387763949107
541,0.0345387763949107
542,0.0345387763949107
543,0.0345387763949107
544,0.0330037119909643
545,0.0330037119909643
546,0.0345387763949107
547,0.0345387763949107
548,0.0353062970839584
549,0.0353062970839584
550,0.0345387763949107
551,0.0353062970839584
552,0.0345387763949105
553,0.0345387763949105
554,0.0360738407988568
555,0.0345387763949105
556,0.0299336062089226
557,0.0307011268979703
558,0.0307011268979703
559,0.0283985418049763
560,0.0307011268979703
561,0.0307011268979703
562,0.0276310211159285
563,0.0276310211159285
564,0.0276310211159285
565,0.0276310211159285
566,0.0283985418049763
567,0.0276310211159285
568,0.0276310211159285
569,0.0291660855198749
570,0.0291660855198749
571,0.0291660855198749
572,0.0276310211159285
573,0.0299336062089226
574,0.0299336062089226
575,0.0268635004268808
576,0.0276310211159285
577,0.0260959567119822
578,0.0268635004268808
579,0.0276310211159285
580,0.0245609153338868
581,0.0237933716189882
582,0.0260959567119822
583,0.0253284360229345
584,0.0222583302408928
585,0.0199557451478986
586,0.0207232658369464
587,0.0207232658369464
588,0.0199557451478986
589,0.0199557451478987
590,0.019188201433
591,0.0199557451478987
592,0.0199557451478987
593,0.0207232658369464
594,0.0222583302408927
595,0.0199557451478987
596,0.0168856163400059
597,0.0153505749619105
598,0.0153505749619107
599,0.0161180956509583
600,0.0168856163400061
601,0.0168856163400061
602,0.0161180956509583
603,0.0168856163400061
604,0.0168856163400061
605,0.014583031247012
606,0.0168856163400061
607,0.0176531600549048
608,0.0176531600549046
609,0.0176531600549046
610,0.0184206807439524
611,0.019188201433
612,0.0199557451478986
613,0.0222583302408927
614,0.0222583302408927
615,0.0222583302408927
616,0.0222583302408927
617,0.0222583302408927
618,0.0222583302408927
619,0.0199557451478987
620,0.0199557451478987
621,0.0199557451478987
622,0.019188201433
623,0.0199557451478986
624,0.0176531600549046
625,0.0176531600549046
626,0.0168856163400059
627,0.0168856163400059
628,0.0199557451478987
629,0.0199557451478987
630,0.0168856163400059
631,0.0199557451478986
632,0.0222583302408927
633,0.0222583302408927
634,0.0207232658369464
635,0.0207232658369464
636,0.0184206807439524
637,0.0222583302408927
638,0.0199557451478987
639,0.019188201433
640,0.0168856163400059
641,0.0168856163400059
642,0.0168856163400059
643,0.0176531600549046
644,0.0153505749619107
645,0.0176531600549046
646,0.0138155105579643
647,0.0138155105579643
648,0.0138155105579643
649,0.0138155105579643
650,0.0107454047759226
651,0.00997786106102391
652,0.00997786106102375
653,0.0076752759680298
654,0.00997786106102391
655,0.0115129254649702
656,0.0115129254649702
657,0.014583031247012
658,0.0107454047759225
659,0.00997786106102391
660,0.012280446154018
661,0.0138155105579642
662,0.0115129254649702
663,0.0130479898689166
664,0.012280446154018
665,0.0138155105579643
666,0.0168856163400061
667,0.0176531600549046
668,0.0176531600549046
669,0.0184206807439524
670,0.019188201433
671,0.0176531600549046
672,0.0176531600549046
673,0.0153505749619105
674,0.0153505749619107
675,0.0138155105579642
676,0.0168856163400061
677,0.0161180956509585
678,0.0161180956509583
679,0.0184206807439524
680,0.0161180956509583
681,0.0153505749619107
682,0.0138155105579642
683,0.0161180956509583
684,0.0130479898689166
685,0.014583031247012
686,0.0115129254649702
687,0.00921034037197614
688,0.0076752759680298
689,0.0084428196829285
690,0.0107454047759225
691,0.0107454047759225
692,0.0130479898689166
693,0.0107454047759226
694,0.00767527596802996
695,0.00997786106102391
696,0.0107454047759225
697,0.0084428196829285
698,0.0107454047759225
699,0.00997786106102391
700,0.0084428196829285
701,0.00997786106102391
702,0.0107454047759225
703,0.0107454047759225
704,0.0107454047759225
705,0.00767527596802996
706,0.0084428196829285
707,0.0084428196829285
708,0.0084428196829285
709,0.00767527596802996
710,0.00997786106102375
711,0.0084428196829285
712,0.00921034037197614
713,0.00921034037197614
714,0.00460517018598791
715,0.00537269087503584
716,0.00230258509299411
717,0.00307010578204173
718,0
719,0.00230258509299411
720,0.00614023458993439
721,0.00230258509299411
722,0.000767520689047625
723,-0.000767520689047625
724,0.00230258509299411
725,0.00230258509299411
726,0.00383764949694059
727,0.00230258509299411
728,-0.00153506440394649
729,-0.00307010578204173
730,-0.00307010578204173
731,-0.00230258509299411
732,-0.00844281968292818
733,-0.00921034037197581
734,-0.00844281968292818
735,-0.0130479898689164
736,-0.0145830312470123
737,-0.0161180956509585
738,-0.0161180956509578
739,-0.0161180956509585
740,-0.0199557451478984
741,-0.0168856163400061
742,-0.0184206807439523
743,-0.0199557451478991
744,-0.0161180956509578
745,-0.0153505749619108
746,-0.013815510557964
747,-0.0122804461540185
748,-0.0122804461540185
749,-0.0122804461540185
750,-0.00767527596803028
751,-0.00690775527898264
752,-0.00690775527898202
753,-0.00690775527898202
754,-0.00383764949694059
755,-0.00383764949694059
756,-0.00307010578204205
757,-0.00230258509299379
758,0
759,0.00230258509299379
760,0.00153506440394617
761,-0.00153506440394617
762,-0.00153506440394617
763,-0.000767520689047625
764,-0.000767520689047625
765,0.000767520689047625
766,0.000767520689047625
767,0.00307010578204141
768,0.00230258509299444
769,0.00383764949693995
770,0.00614023458993439
771,0.00614023458993503
772,0.00767527596802964
773,0.00921034037197581
774,0.00997786106102407
775,0.00844281968292818
776,0.0130479898689164
777,0.0115129254649702
778,0.0153505749619108
779,0.0122804461540179
780,0.0122804461540185
781,0.0145830312470117
782,0.0168856163400061
783,0.0161180956509585
784,0.0145830312470117
785,0.0176531600549046
786,0.0184206807439523
787,0.0176531600549046
788,0.0184206807439523
789,0.0184206807439523
790,0.0153505749619102
791,0.0184206807439523
792,0.0176531600549046
793,0.0161180956509578
794,0.0161180956509585
795,0.0184206807439523
796,0.0176531600549046
797,0.0161180956509585
798,0.0184206807439523
799,0.0184206807439523
800,0.0207232658369464
