Wavelength,Abs
200,87.5780564913395
201,87.79526701077
202,88.1913116467649
203,88.5129060390951
204,88.7777033247894
205,89.0156371100568
206,88.8843897597561
207,89.0494083427368
208,89.5352538203844
209,89.6711063408711
210,88.7884487065395
211,88.2266179438489
212,88.3133486566936
213,88.0592967757752
214,85.8219515860741
215,82.4171957772508
216,79.9664776945902
217,77.9908596848013
218,75.9216032068887
219,73.4186932108042
220,71.7332009227325
221,70.8513108551417
222,69.8020995734255
223,68.3982901873881
224,67.1817577375982
225,65.6167673950513
226,64.6335635603429
227,64.215260594107
228,63.0248241010291
229,61.7184908326124
230,60.4973531896107
231,59.4704002611612
232,58.5585765643355
233,57.7035499741457
234,56.869246626767
235,55.8960206761454
236,54.9696139250469
237,54.17368700356
238,53.4460701141738
239,52.587973418202
240,51.7851387414361
241,51.1573005317378
242,50.5356025566294
243,49.7834247749352
244,49.2024057877858
245,48.6705086313042
246,48.0457405504138
247,47.6166922024278
248,47.1876438544419
249,46.7731785146771
250,46.3748312935891
251,45.8981961793394
252,45.5121294274313
253,45.1391106423662
254,44.7522763467432
255,44.3846302525532
256,43.9954933718372
257,43.5956111093712
258,43.1972638652573
259,42.7981491234803
260,42.3560527856255
261,41.9009084809275
262,41.4672549397298
263,41.002132750945
264,40.5324053919742
265,40.0450248729485
266,39.5353860467078
267,39.0119316868832
268,38.4332153078527
269,37.8007719279684
270,37.2228230926527
271,36.6210808626922
272,35.9748219722499
273,35.3423785923656
274,34.6684887038333
275,34.020694748987
276,33.3989967738786
277,32.7228043002533
278,32.0327962930441
279,31.3512311055179
280,30.6512452142218
281,29.9520268896665
282,29.2704617021403
283,28.6011769837939
284,27.9472428173836
285,27.3278474043424
286,26.709219535016
287,26.0951968589015
288,25.505735075095
289,24.9009227163267
290,24.3137635176132
291,23.7503977135445
292,23.19317212104
293,22.6597399001544
294,22.1454958807018
295,21.646602459237
296,21.1668972392052
297,20.7017750504204
298,20.2535384779756
299,19.8183498953998
300,19.3977443670967
301,18.9871166768289
302,18.5887694557409
303,18.1919572990569
304,17.7974477274659
305,17.4159860996921
306,17.0552477838069
307,16.6998821587968
308,16.3537268741586
309,16.0206195333377
310,15.7013277491264
311,15.3904787615722
312,15.070419433646
313,14.7534302115019
314,14.4540941494127
315,14.1693411415963
316,13.8945659718151
317,13.6228609308418
318,13.3427130932114
319,13.0771482638022
320,12.8138860425119
321,12.5529264063145
322,12.3073173220532
323,12.0617082608177
324,11.8191692823384
325,11.5781653682631
326,11.3379289979027
327,11.1115081381002
328,10.8958326600478
329,10.6793896613064
330,10.4675518327509
331,10.2603191743815
332,10.055389101105
333,9.8619719532935
334,9.666252220389
335,9.47590517835955
336,9.29169837092002
337,9.11056166926254
338,8.93633274590989
339,8.75903369374935
340,8.58173464158881
341,8.4098082803033
342,8.2386494627327
343,8.07363087975202
344,7.90937979443455
345,7.75817669898599
346,7.6192540727173
347,7.47879638204466
348,7.34064127646502
349,7.20018358579238
350,7.06356354461668
351,6.93385123569412
352,6.80874411998339
353,6.68056687546478
354,6.5562272804431
355,6.4395629844153
356,6.32673629183274
357,6.21007199580494
358,6.09494274115524
359,5.98441865669153
360,5.8761971573208
361,5.76797565795008
362,5.6635918080763
363,5.55690535008368
364,5.45559160599194
365,5.34890517102517
366,5.24682390624438
367,5.14781274724564
368,5.05263923774384
369,4.95823322590523
370,4.86612982218547
371,4.7763290035587
372,4.68806324933588
373,4.6005650158021
374,4.50999667648629
375,4.4263360694236
376,4.34344302910167
377,4.26438759222497
378,4.18609969906317
379,4.10781180590138
380,4.02952391273958
381,3.95430612535982
382,3.87832081729102
383,3.80463811734106
384,3.72942032996131
385,3.6534350218925
386,3.58512498979173
387,3.51604743700191
388,3.44696988421209
389,3.38019491651526
390,3.31495499019653
391,3.25125015130759
392,3.1898478744858
393,3.12537549188197
394,3.06167065299303
395,3.00257096126424
396,2.94423881325034
397,2.88744170661453
398,2.83141214369363
399,2.77307999567973
400,2.72165557991896
401,2.67023118718405
402,2.61803925073423
403,2.56661483497346
404,2.51519044223855
405,2.46453357019268
406,2.41771434764375
407,2.36936006069087
408,2.32484342323494
409,2.28032676275315
410,2.23427506089327
411,2.19359607293428
412,2.15445212635338
413,2.11607570046153
414,2.07616423319158
415,2.03778780729973
416,1.99787634002978
417,1.95949991413793
418,1.92572865843207
419,1.89195740272621
420,1.8566511286681
421,1.82287987296224
422,1.78987616097127
423,1.75994255476235
424,1.72693881974553
425,1.7000753423445
426,1.66860667173164
427,1.63867306552271
428,1.61180956509583
429,1.58494606466895
430,1.55654752286397
431,1.53121908684104
432,1.50589065081811
433,1.48056221479517
434,1.45600129946128
435,1.43297544853134
436,1.4099495976014
437,1.38769126736051
438,1.36466541643057
439,1.34163956550063
440,1.32014880200049
441,1.29942553616354
442,1.27870227032659
443,1.26104911027169
444,1.2395583237457
445,1.2196025785978
446,1.20118187482799
447,1.18506377917704
448,1.16434051334009
449,1.14745489700008
450,1.12903421625613
451,1.11138107922708
452,1.09833308935816
453,1.0822149937072
454,1.06609689805624
455,1.04767621731229
456,1.02772047216439
457,1.01313744091738
458,1.00162451545241
459,0.987041484205398
460,0.968620780435595
461,0.955572813592529
462,0.942524823723612
463,0.927174248761702
464,0.913358738203738
465,0.898775706956726
466,0.884192675709713
467,0.868074580058755
468,0.856561654593785
469,0.845048729128815
470,0.832768282974797
471,0.81972029310588
472,0.810509952733904
473,0.79669444217594
474,0.785949037400017
475,0.776738697028041
476,0.765225771563071
477,0.755247910502047
478,0.746037570130071
479,0.733757123976053
480,0.723779239889178
481,0.7153364432321
482,0.706893623549172
483,0.697683283177196
484,0.686937878401273
485,0.677727538029297
486,0.670819782750315
487,0.662376963067387
488,0.651631581317315
489,0.643956282323434
490,0.636281006355404
491,0.627838186672476
492,0.620930431393494
493,0.612487634736416
494,0.605579879457434
495,0.597904603489404
496,0.590996825184571
497,0.582554028527494
498,0.574111208844565
499,0.569506038658577
500,0.561830762690547
501,0.55645804878966
502,0.548782772821631
503,0.541107496853601
504,0.534967285289517
505,0.526524465606589
506,0.519616710327607
507,0.512708932022774
508,0.50656872045869
509,0.500428485868756
510,0.496590859397666
511,0.492753209900726
512,0.485077933932696
513,0.478170155627863
514,0.473565008467726
515,0.467424773877791
516,0.462052083002756
517,0.457446912816767
518,0.450539157537785
519,0.444398922947851
520,0.439793752761863
521,0.435956103264922
522,0.42904834798594
523,0.424443177799952
524,0.419838007613964
525,0.414465316738928
526,0.40986014655294
527,0.406022520081851
528,0.400649806180964
529,0.39450957159103
530,0.389136880715994
531,0.385299231219053
532,0.379926540344018
533,0.376088890847077
534,0.372251241350137
535,0.366878550475101
536,0.362273380289113
537,0.357668210103125
538,0.353830583632035
539,0.350760477849994
540,0.347690349042101
541,0.343085178856113
542,0.339247552385023
543,0.335409879862232
544,0.330804709676244
545,0.326199562516107
546,0.32082684861522
547,0.31698919911828
548,0.313919093336238
549,0.310081443839298
550,0.307778881772154
551,0.303941232275214
552,0.300103582778274
553,0.296265956307184
554,0.29396337121419
555,0.290893265432148
556,0.29012572171725
557,0.283985487127315
558,0.280915381345274
559,0.27861279625228
560,0.276310211159286
561,0.272472584688196
562,0.27093752028425
563,0.267099870787309
564,0.264029741979417
565,0.260192115508327
566,0.257889530415333
567,0.254819424633291
568,0.254051903944244
569,0.248679190043357
570,0.247144125639411
571,0.247144125639411
572,0.244841563572267
573,0.240236370360428
574,0.237166264578387
575,0.23563120017444
576,0.2317935506775
577,0.230258509299405
578,0.226420859802464
579,0.22411827470947
580,0.223350754020422
581,0.218745583834434
582,0.217978063145387
583,0.215675478052393
584,0.2126053492445
585,0.20876769974756
586,0.207232658369464
587,0.204162529561571
588,0.203395031898375
589,0.199557359375583
590,0.19725479730844
591,0.195719732904494
592,0.191882106433404
593,0.190347042029458
594,0.189579498314559
595,0.188811977625512
596,0.188044433910613
597,0.184974328128571
598,0.182671743035577
599,0.18190422234653
600,0.178834116564488
601,0.178834116564488
602,0.1742289463785
603,0.173461402663601
604,0.170391296881559
605,0.170391296881559
606,0.168088711788565
607,0.167321168073667
608,0.164251062291625
609,0.164251062291625
610,0.164251062291625
611,0.16271602091353
612,0.159645892105637
613,0.158878371416589
614,0.155808265634547
615,0.15120309544856
616,0.15120309544856
617,0.149668031044613
618,0.15120309544856
619,0.150435574759512
620,0.148132989666518
621,0.144295317143726
622,0.142760275765631
623,0.141992755076583
624,0.142760275765631
625,0.141225211361685
626,0.139690146957738
627,0.13892262626869
628,0.137387584890595
629,0.134317456082702
630,0.134317456082702
631,0.134317456082702
632,0.134317479108553
633,0.131247350300661
634,0.130479829611613
635,0.128944765207667
636,0.12740970080372
637,0.12740970080372
638,0.125874636399774
639,0.125107138736577
640,0.125107115710726
641,0.123572074332631
642,0.120501945524738
643,0.118966881120792
644,0.118199360431744
645,0.117431839742696
646,0.117431839742696
647,0.118199383457595
648,0.117431839742696
649,0.11589677533875
650,0.115129254649702
651,0.113594213271607
652,0.112059148867661
653,0.111291605152762
654,0.110524084463714
655,0.111291605152762
656,0.111291605152762
657,0.110524084463714
658,0.10822149937072
659,0.107453978681672
660,0.10822149937072
661,0.106686457992625
662,0.105151393588678
663,0.105918914277726
664,0.106686434966774
665,0.105918914277726
666,0.10438384987378
667,0.101313744091738
668,0.10054622340269
669,0.0997787027136426
670,0.0997786796877917
671,0.0982436152838453
672,0.0982436152838453
673,0.099011158998744
674,0.0997786796877914
675,0.0997786796877917
676,0.0982436383096963
677,0.0951735095018036
678,0.0959410532167022
679,0.0944059888127559
680,0.0944059888127559
681,0.0928709474346605
682,0.0905683393158155
683,0.0921034037197618
684,0.0913358830307141
685,0.0913358830307141
686,0.0921034037197618
687,0.0905683623416664
688,0.0898008186267678
689,0.0913358830307141
690,0.0890332979377201
691,0.0874982335337737
692,0.0874982335337737
693,0.0898008186267678
694,0.0890332749118691
695,0.0882657772486724
696,0.086730712844726
697,0.0859631691298276
698,0.0851956484407797
699,0.0851956484407797
700,0.0844281047258813
701,0.0828930633477857
702,0.0813579989438393
703,0.0821255426587379
704,0.079822934539893
705,0.082125519632887
706,0.0805904782547916
707,0.0828930633477857
708,0.0828930633477854
709,0.0805904782547916
710,0.0782878931617975
711,0.0775203724727498
712,0.0782878931617975
713,0.0790554138508455
714,0.0790554138508452
715,0.0744502436648572
716,0.0752177873797558
717,0.0767528287578514
718,0.0752177643539049
719,0.0744502666907081
720,0.0736827229758097
721,0.0744502436648572
722,0.0721476815977141
723,0.0706125941679168
724,0.0698450734788691
725,0.0683100321007739
726,0.0667749676968273
727,0.0667749676968273
728,0.067542511411726
729,0.0644723826038333
730,0.0637048619147856
731,0.0629373412257376
732,0.062169797510839
733,0.0644723826038333
734,0.0644723826038333
735,0.0614022537959408
736,0.0614022537959408
737,0.0583321710397498
738,0.0575646273248511
739,0.0590996687029466
740,0.0537270008537621
741,0.0521919364498153
742,0.0529594571388631
743,0.056029585946756
744,0.0552620422318573
745,0.0552620422318569
746,0.0537269778279105
747,0.0552620422318573
748,0.056029562920905
749,0.0567971066358037
750,0.0575646273248511
751,0.056029585946756
752,0.0544945215428092
753,0.0544945215428092
754,0.0544945215428092
755,0.0567971066358037
756,0.0583321480138989
757,0.0575646273248511
758,0.0567970836099527
759,0.0567970836099527
760,0.0552620422318573
761,0.0567970836099527
762,0.0598672124178456
763,0.0614022537959401
764,0.0637048388889346
765,0.0644723826038333
766,0.0637048388889346
767,0.0621697975108395
768,0.0621697975108395
769,0.0606347331068927
770,0.0621697975108395
771,0.0629373181998869
772,0.0667749676968276
773,0.0690775527898214
774,0.0690775527898214
775,0.0706126171937677
776,0.0706125941679168
777,0.0713801378828152
778,0.0729152022867613
779,0.0736827229758097
780,0.0729152022867613
781,0.0713801378828159
782,0.072915202286762
783,0.0744502436648572
784,0.0736827229758097
785,0.0767528517837019
786,0.0790554138508455
787,0.0798229575657441
788,0.0790554368766964
789,0.0821255426587379
790,0.0828930633477854
791,0.0844281047258813
792,0.0844281277517315
793,0.0828930633477854
794,0.0821255426587379
795,0.0844281277517322
796,0.0844281047258813
797,0.0851956484407799
798,0.0874982335337737
799,0.086730712844726
800,0.0859631691298276
