Wavelength,Abs
200,15.4885305024402
201,15.067349327864
202,14.2675847568802
203,13.5474512690463
204,12.8787421969731
205,12.253014697952
206,11.7034643814155
207,11.2101355252415
208,10.7306221796255
209,10.2773966881631
210,9.86139630702025
211,9.47744024276349
212,9.11842884267222
213,8.79107801063547
214,8.48099654377032
215,8.18703317255613
216,7.91935765549557
217,7.67451611494915
218,7.44176314614096
219,7.21649355585914
220,7.01348231884406
221,6.8256297363234
222,6.651976459244
223,6.48906856391467
224,6.33748169660866
225,6.19472142084303
226,6.05675821270504
227,5.93011603259037
228,5.8023225599292
229,5.67145895846013
230,5.54001973374367
231,5.4135694280448
232,5.29402690065076
233,5.17467622464667
234,5.06031451371187
235,4.95900076962013
236,4.85903019249069
237,4.76654301691347
238,4.67808538827485
239,4.59615172003191
240,4.52170147636706
241,4.45166450544654
242,4.38373824520321
243,4.32348728395377
244,4.26669017731797
245,4.2148820127256
246,4.16537643322623
247,4.12297048342164
248,4.08190772360519
249,4.04429884142824
250,4.00822500062939
251,3.97349434981868
252,3.93933932225536
253,3.91055700859294
254,3.88330975933446
255,3.85337615312554
256,3.82363442133241
257,3.79715469276298
258,3.76664544028081
259,3.73920631660653
260,3.70888893854016
261,3.67722839351149
262,3.64364903524728
263,3.61122094650371
264,3.57802536009695
265,3.54367845811784
266,3.50549392966764
267,3.46730937819158
268,3.42528720024444
269,3.38134620906176
270,3.33932403111461
271,3.29077786974594
272,3.24491804230186
273,3.19560433721829
274,3.14571500888732
275,3.0937149468533
276,3.04344184666488
277,2.99124991021506
278,2.93694728611391
279,2.88168524388205
280,2.82623132723439
281,2.7657884685433
282,2.71225336513119
283,2.65104296272519
284,2.59750785931308
285,2.54397275590097
286,2.48851883925332
287,2.43325679702146
288,2.37857040106285
289,2.32848917529023
290,2.27802417766016
291,2.22621601306779
292,2.17671043356842
293,2.13085062915019
294,2.08422328101706
295,2.04220110306992
296,2.00017892512278
297,1.95547039022519
298,1.91632644364429
299,1.87814191519409
300,1.84130055370619
301,1.80695365172708
302,1.77049606209662
303,1.73461409571356
304,1.70410484323139
305,1.67071735938298
306,1.63982435806921
307,1.6066287486366
308,1.57727078870092
309,1.55098293454729
310,1.52546262410856
311,1.49879102112332
312,1.4703924562925
313,1.44755850280421
314,1.42223006678127
315,1.39862856957808
316,1.37637023933719
317,1.355071327227
318,1.33070230933476
319,1.30978714605616
320,1.28772071325692
321,1.26565428045768
322,1.24512288903653
323,1.22516714388863
324,1.20578706803983
325,1.18679074102263
326,1.16664312145893
327,1.15033312836632
328,1.13152869879077
329,1.11138107922708
330,1.09468733730287
331,1.07818546979446
332,1.06494560550975
333,1.04633305034999
334,1.02983118284159
335,1.01544002601037
336,0.998938158501967
337,0.983971355397505
338,0.968045157188197
339,0.954613395461831
340,0.93964659235737
341,0.924679789252909
342,0.910672404279145
343,0.898391958125127
344,0.883041383163217
345,0.868842100747803
346,0.857329175282833
347,0.845432500986264
348,0.835838388756839
349,0.820871585652377
350,0.807247949510212
351,0.794967503356194
352,0.783838349748673
353,0.771366006153005
354,0.76177189392358
355,0.751602158446757
356,0.743734985037077
357,0.733373352118604
358,0.72339549105758
359,0.714185150685604
360,0.70363162032548
361,0.690391756040764
362,0.682716480072735
363,0.670627908334516
364,0.66103379610509
365,0.654126040826108
366,0.642421240945339
367,0.632443379884315
368,0.620930454419345
369,0.614022699140363
370,0.603085419948641
371,0.593875079576665
372,0.586583552440233
373,0.577181337652458
374,0.569314164242778
375,0.561446990833098
376,0.551277255356275
377,0.542834435673346
378,0.535159159705316
379,0.52978644580443
380,0.519041064054358
381,0.511941411333726
382,0.506760594874489
383,0.498125900775762
384,0.489491206677034
385,0.482583451398052
386,0.474140654740974
387,0.467616648293591
388,0.462243957418555
389,0.454184909593076
390,0.446317736183396
391,0.439985627177662
392,0.431542830520584
393,0.428280827296892
394,0.42156494643371
395,0.414465316738928
396,0.408900728422242
397,0.401033578038413
398,0.393550176486183
399,0.386834295623
400,0.384531710530006
401,0.378007727108473
402,0.37129184624529
403,0.367837968605799
404,0.36361657027726
405,0.356708814998278
406,0.35191174737064
407,0.345771535806556
408,0.341550114452167
409,0.339247529359172
410,0.333107317795089
411,0.329461542713948
412,0.324280726254711
413,0.319867453510373
414,0.315070385882735
415,0.31353534450464
416,0.308930174318651
417,0.30566817109496
418,0.301063000908971
419,0.296457830722983
420,0.291852660536995
421,0.288590657313303
422,0.283601738295717
423,0.281299153202723
424,0.27822902439483
425,0.272664459103995
426,0.268826809607055
427,0.268059288918007
428,0.265756703825013
429,0.259424594819279
430,0.256354466011387
431,0.254051880918393
432,0.250214254447303
433,0.24752789749686
434,0.247144125639411
435,0.245800958677114
436,0.242538955453423
437,0.237741910851635
438,0.235439325758641
439,0.233904261354695
440,0.231217927430102
441,0.229682863026156
442,0.225077692840168
443,0.223542628436222
444,0.221048168927428
445,0.219321230107683
446,0.217210519430488
447,0.216059226883991
448,0.212989121101949
449,0.209151471605009
450,0.206848886512015
451,0.204738198860671
452,0.200900549363731
453,0.199365484959784
454,0.200133028674683
455,0.198597964270736
456,0.194760314773796
457,0.1934171478115
458,0.190922688302707
459,0.187852559494814
460,0.18554997440182
461,0.183055514893027
462,0.180944804215832
463,0.179985409110985
464,0.180369157942583
465,0.178066572849589
466,0.175955885198245
467,0.1742289463785
468,0.172693881974553
469,0.169431878750862
470,0.168664358061814
471,0.167129293657868
472,0.165018606006523
473,0.163867313460027
474,0.163099769745128
475,0.161756602782832
476,0.157918953285891
477,0.157918953285891
478,0.155616368192897
479,0.155232619361299
480,0.153697554957353
481,0.152354387995056
482,0.151011198006909
483,0.150243677317862
484,0.148708612913915
485,0.148708612913915
486,0.149284259187164
487,0.147749217809068
488,0.142568401349832
489,0.141800857634933
490,0.140265816256838
491,0.140265816256838
492,0.140265816256838
493,0.139114523710341
494,0.139114523710341
495,0.136428166759897
496,0.134893102355951
497,0.134893102355951
498,0.134317456082702
499,0.133549935393655
500,0.132014870989708
501,0.129328537065116
502,0.128369118934418
503,0.126834054530472
504,0.124915241294927
505,0.12376394874843
506,0.123188302475181
507,0.121461363655436
508,0.121461363655436
509,0.121845135512885
510,0.120310071108939
511,0.119158778562442
512,0.11992629925149
513,0.118775006704993
514,0.1160886727804
515,0.115321129065501
516,0.115321129065501
517,0.113594190245756
518,0.113977962103205
519,0.113210441414158
520,0.11186725142601
521,0.110332210047915
522,0.110332210047915
523,0.110332210047915
524,0.108029624954921
525,0.108029624954921
526,0.106494560550975
527,0.105727039861927
528,0.104959496147028
529,0.104959496147028
530,0.104959496147028
531,0.101889390364987
532,0.101121869675939
533,0.101121869675939
534,0.0992030334145432
535,0.10035432596104
536,0.0995868052719925
537,0.0951735095018036
538,0.0951735095018036
539,0.0936384681237082
540,0.093446570682058
541,0.091143985589064
542,0.0905683393158155
543,0.0913358830307141
544,0.0913358830307141
545,0.0913358830307141
546,0.0905683393158155
547,0.0882657542228214
548,0.0882657542228214
549,0.0888414004960699
550,0.0888414004960699
551,0.0871144616763244
552,0.0857712947140282
553,0.0857712947140282
554,0.0836605840368334
555,0.0834687096210342
556,0.0834687096210342
557,0.0821255426587379
558,0.0821255426587379
559,0.0821255426587379
560,0.0809742501122409
561,0.0821255426587379
562,0.0815498963854894
563,0.0798229575657439
564,0.0790554138508452
565,0.0769447261995013
566,0.0763690799262528
567,0.0780960187459984
568,0.0780960187459984
569,0.0763690799262528
570,0.0752177873797558
571,0.0752177873797558
572,0.074066494833259
573,0.074258369249058
574,0.074258369249058
575,0.0715720122986146
576,0.0717639097402647
577,0.0715720122986146
578,0.0715720122986146
579,0.0696531990630699
580,0.0698450734788691
581,0.0686937809323721
582,0.0685019065165731
583,0.0709963660253661
584,0.0700369709205192
585,0.0677343858275252
586,0.0656236751503303
587,0.0671587395542766
588,0.0677343858275252
589,0.067542488385875
590,0.066391195839378
591,0.0669668421126265
592,0.0667749676968273
593,0.0658155495661295
594,0.0642805081880341
595,0.065239903292881
596,0.0654318007345311
597,0.0656236751503305
598,0.064088610746384
599,0.0656236751503303
600,0.0635129644731352
601,0.064088610746384
602,0.0625535693682888
603,0.0629373181998869
604,0.0646642570196325
605,0.0633210900573363
606,0.0633210900573363
607,0.0633210900573363
608,0.0621697975108392
609,0.0623616719266384
610,0.0600590868336444
611,0.0589077942871474
612,0.0598672124178452
613,0.0598672124178452
614,0.0592915661445967
615,0.058524045455549
616,0.058524045455549
617,0.0569889810516026
618,0.0569889810516026
619,0.0569889810516026
620,0.0558376885051056
621,0.0566052091941533
622,0.0567971066358037
623,0.0566052091941533
624,0.0571808554674018
625,0.0564133347783541
626,0.0554539166476563
627,0.0566052091941533
628,0.0543026241011593
629,0.0537269778279108
630,0.0535351034121116
631,0.0539188752695611
632,0.0558376885051056
633,0.0544945215428094
634,0.0527675827230639
635,0.0527675827230639
636,0.0525756852814137
637,0.0510406439033183
638,0.0504649976300696
639,0.0493137050835728
640,0.0493137050835728
641,0.0493137050835728
642,0.0510406439033186
643,0.0489299332261235
644,0.0498893513568213
645,0.0493137050835728
646,0.0502731001884197
647,0.0491218076419224
648,0.0487380588103243
649,0.048354286952875
650,0.0473948688221771
651,0.0468192225489286
652,0.0466273481331294
653,0.0485461613686742
654,0.0473948688221771
655,0.0472029944063779
656,0.0475867662638273
657,0.0464354737173302
658,0.0475867662638273
659,0.0464354737173302
660,0.0468192225489286
661,0.0493137050835728
662,0.0458598274440817
663,0.0452841811708334
664,0.0458598274440817
665,0.0460517018598809
666,0.0454760555866324
667,0.0441328886243362
668,0.0435572423510877
669,0.0435572423510877
670,0.0439409911826863
671,0.0437491167668869
672,0.0437491167668869
673,0.042789698636189
674,0.0452841811708332
675,0.0452841811708332
676,0.0450922837291831
677,0.0433653449094376
678,0.0435572423510877
679,0.0447085348975845
680,0.0420221779471413
681,0.0410627598164435
682,0.0414465316738928
683,0.040487113543195
684,0.0412546572580936
685,0.041638406089692
686,0.0402952391273958
687,0.0425978242203899
688,0.0399114672699465
689,0.0414465316738928
690,0.0399114672699465
691,0.0399114672699465
692,0.0395277184383483
693,0.0399114672699465
694,0.0399114672699465
695,0.0397195928541473
696,0.0406790109848451
697,0.040487113543195
698,0.0412546572580936
699,0.0401033647115966
700,0.0401033647115966
701,0.040487113543195
702,0.0412546572580936
703,0.0401033647115966
704,0.0401033647115966
705,0.0397195928541473
706,0.0401033647115966
707,0.0395277184383481
708,0.0387601747234497
709,0.0397195928541473
710,0.0416384060896922
711,0.0399114672699465
712,0.0401033647115966
713,0.0402952391273956
714,0.0418303035313419
715,0.0431734704936384
716,0.0412546572580936
717,0.0437491167668869
718,0.0433653449094376
719,0.0433653449094376
720,0.0433653449094376
721,0.0435572423510877
722,0.0425978242203899
723,0.0433653449094376
724,0.0439409911826863
725,0.0443247630401354
726,0.0454760555866324
727,0.0443247630401354
728,0.0450922837291833
729,0.0458598274440817
730,0.0466273481331297
731,0.048162412537076
732,0.0493137050835728
733,0.0516162901765668
734,0.0548782703744082
735,0.055645814089306
736,0.0569889810516026
737,0.0566052091941536
738,0.0567971066358037
739,0.0579483991823005
740,0.0566052091941536
741,0.0554539166476565
742,0.0560295629209043
743,0.0566052091941536
744,0.0564133347783543
745,0.0575646273248511
746,0.0562214603625552
747,0.0558376885051058
748,0.0552620422318569
749,0.0529594571388631
750,0.0537269778279105
751,0.0514243927349167
752,0.0510406439033179
753,0.0481624125370755
754,0.0481624125370755
755,0.0458598274440817
756,0.0435572423510874
757,0.0433653449094373
758,0.0427896986361895
759,0.0422140523629403
760,0.0431734704936388
761,0.0420221779471411
762,0.0424059498045911
763,0.0425978242203896
764,0.0406790109848451
765,0.0397195928541473
766,0.037992654034402
767,0.036265715214656
768,0.0330037119909639
769,0.0307011268979701
770,0.0310848987554194
771,0.0312767731712186
772,0.0335793582642124
773,0.033771255705863
774,0.0331956094326147
775,0.0287823136624256
776,0.0305092524821716
777,0.0280147929733774
778,0.0293579599356741
779,0.0297417317931234
780,0.0289741880782248
781,0.026671602985231
782,0.0255203104387342
783,0.0243690178922364
784,0.0251365616071351
785,0.0245609153338866
786,0.0230258509299405
787,0.0243690178922364
788,0.0243690178922364
789,0.0243690178922364
790,0.0243690178922364
791,0.0232177253457397
792,0.0222583302408922
793,0.0228339765141407
794,0.0211070376943953
795,0.0226420790724912
796,0.0226420790724912
797,0.022450204656692
798,0.0203394939794968
799,0.0220664327992428
800,0.0237933716189882
