Wavelength,Abs
200,11.0892498078593
201,10.821382416383
202,10.3171162579914
203,9.86887970857248
204,9.46055460339764
205,9.06758009621055
206,8.71298199188947
207,8.38754997308826
208,8.07439837741522
209,7.77813244413389
210,7.50028719159651
211,7.23932753237328
212,6.99295092742292
213,6.76115735371957
214,6.53857414341404
215,6.32903889995158
216,6.1310165819541
217,5.94834483891852
218,5.77104576373213
219,5.60142198753961
220,5.43793846896289
221,5.28903795860732
222,5.14704520353074
223,5.01503033254103
224,4.8914582582084
225,4.7763290035587
226,4.66733998349893
227,4.56756128078529
228,4.46701508040845
229,4.36646885700576
230,4.272062868193
231,4.18379711397018
232,4.0978339218145
233,4.01263829639957
234,3.92974521002594
235,3.85375992498299
236,3.78237978710017
237,3.7133022112845
238,3.64499220220957
239,3.58205486098384
240,3.52449025668484
241,3.47306584092407
242,3.4231765125931
243,3.37482222564022
244,3.33260815025143
245,3.29346420367053
246,3.25432025708963
247,3.22131654509867
248,3.19138293888975
249,3.15684416249484
250,3.12614301257102
251,3.09774447076604
252,3.07395109914705
253,3.04785514243507
254,3.02482929150513
255,3.00026837617124
256,2.97493994014831
257,2.95114654550347
258,2.92505058879149
259,2.9012572171725
260,2.87439371674562
261,2.84906530374853
262,2.8222017802958
263,2.79457078220572
264,2.76924234618279
265,2.73930871694802
266,2.707840069361
267,2.67790646315208
268,2.64643781556506
269,2.61343408054824
270,2.57966284786823
271,2.54589159216237
272,2.51135281576746
273,2.47681403937255
274,2.44304278366668
275,2.40620142217878
276,2.37166264578387
277,2.337891390078
278,2.29567733771506
279,2.25806843251226
280,2.21815696524231
281,2.17978053935046
282,2.14140413648446
283,2.09919006109567
284,2.05774352942178
285,2.01859960586673
286,1.98175824437883
287,1.94261427477208
288,1.90500539259512
289,1.86509392532518
290,1.82825256383727
291,1.79448133115726
292,1.75840746733255
293,1.72386871396349
294,1.69163252266158
295,1.65939630833381
296,1.62792766074679
297,1.59876157522692
298,1.56882796901799
299,1.53889436280907
300,1.51356594981199
301,1.48900501145225
302,1.46290907776612
303,1.43681309802828
304,1.41378724709834
305,1.3907613961684
306,1.36543296014547
307,1.34470969430852
308,1.32321890778253
309,1.30096057754164
310,1.28100485541959
311,1.26181663096074
312,1.24109336512379
313,1.22267268437984
314,1.20348448294684
315,1.18429628151384
316,1.16664312145893
317,1.14898996140403
318,1.13363938644212
319,1.11445118500912
320,1.09603050426517
321,1.08067992930326
322,1.0630267922742
323,1.04921128171624
324,1.03155812166133
325,1.01390498463228
326,0.996251824577374
327,0.981668770304511
328,0.967085739057499
329,0.952502707810487
330,0.939454717941571
331,0.923336622290612
332,0.913358761229589
333,0.898775729982577
334,0.883425155020666
335,0.871144708866648
336,0.855794133904737
337,0.842746144035821
338,0.832768282974797
339,0.822022878198874
340,0.809742432044856
341,0.79669444217594
342,0.785949037400017
343,0.772133526842053
344,0.760620601377083
345,0.749107675912113
346,0.739129814851089
347,0.728384410075166
348,0.718406549014142
349,0.708428687953118
350,0.697683283177196
351,0.690007984183315
352,0.681565187526238
353,0.670819782750315
354,0.661609442378339
355,0.652399102006363
356,0.643956305349285
357,0.634745964977309
358,0.62630314529438
359,0.617092804922404
360,0.607882464550428
361,0.5994396448675
362,0.59176436889947
363,0.581786507838446
364,0.573343688155517
365,0.56490089149844
366,0.557993113193607
367,0.548782772821631
368,0.543410081946595
369,0.534967262263666
370,0.526524442580738
371,0.523454336798696
372,0.515011540141619
373,0.50656872045869
374,0.498125900775762
375,0.491985666185827
376,0.484310413243648
377,0.478937699342761
378,0.472029944063779
379,0.465122188784797
380,0.458214433505815
381,0.452074198915881
382,0.445166443636899
383,0.438258688357916
384,0.433653518171928
385,0.426745762892946
386,0.419838007613964
387,0.416000358117024
388,0.408325082148994
389,0.402952391273958
390,0.396044635994976
391,0.392974507187083
392,0.387601816312047
393,0.382996646126059
394,0.373786305754083
395,0.369181135568095
396,0.364575965382107
397,0.359203274507071
398,0.353063039917137
399,0.349992934135095
400,0.346922805327202
401,0.340015073074071
402,0.336944944266178
403,0.33233977408019
404,0.330037188987196
405,0.325432018801208
406,0.318524263522226
407,0.315454157740184
408,0.310081443839298
409,0.307778858746303
410,0.304708752964262
411,0.298568541400178
412,0.295498412592286
413,0.290893242406297
414,0.287823136624256
415,0.283217966438268
416,0.280915381345274
417,0.276310211159286
418,0.27093752028425
419,0.269402455880303
420,0.267099870787309
421,0.264029741979417
422,0.261727179912274
423,0.259424571793429
424,0.253284360229345
425,0.249446733758256
426,0.246376604950363
427,0.246376604950363
428,0.242538978479273
429,0.240236393386279
430,0.237166264578387
431,0.236398743889339
432,0.231026053014303
433,0.229490988610357
434,0.229490965584506
435,0.225653339113416
436,0.222583210305524
437,0.218745583834434
438,0.214907934337494
439,0.214140413648446
440,0.211837828555452
441,0.211070307866405
442,0.208000179058512
443,0.204162529561571
444,0.203395008872524
445,0.200324903090482
446,0.199557382401434
447,0.198789861712387
448,0.194952212215446
449,0.1934171478115
450,0.189579498314559
451,0.188811977625512
452,0.184974351154422
453,0.183439286750476
454,0.181136701657482
455,0.179601637253536
456,0.178066572849589
457,0.176531508445643
458,0.173461402663601
459,0.172693881974553
460,0.170391296881559
461,0.168856255503464
462,0.167321168073667
463,0.165786126695572
464,0.16271602091353
465,0.161948477198631
466,0.158878371416589
467,0.158110850727541
468,0.158110850727541
469,0.157343307012643
470,0.155808242608696
471,0.151970616137607
472,0.150435551733661
473,0.150435551733661
474,0.150435551733661
475,0.148132966640667
476,0.147365445951619
477,0.145062860858625
478,0.143527796454679
479,0.142760275765631
480,0.141225211361685
481,0.141992732050732
482,0.140457690672637
483,0.13892262626869
484,0.137387561864744
485,0.134317456082702
486,0.13508497677175
487,0.13508497677175
488,0.132782414704607
489,0.132782414704607
490,0.132782414704607
491,0.130479829611613
492,0.129712308922565
493,0.129712308922565
494,0.128944765207667
495,0.12740970080372
496,0.126642180114673
497,0.126642180114673
498,0.124339595021678
499,0.125107138736577
500,0.125107115710726
501,0.122037009928685
502,0.118966881120792
503,0.118966881120792
504,0.118199360431744
505,0.116664319053649
506,0.118199360431744
507,0.117431839742696
508,0.116664319053649
509,0.114361733960654
510,0.113594190245756
511,0.114361733960655
512,0.111291605152762
513,0.110524084463714
514,0.11205912584181
515,0.111291605152762
516,0.111291605152762
517,0.110524084463714
518,0.109756563774666
519,0.10822149937072
520,0.106686457992625
521,0.105918914277726
522,0.10438384987378
523,0.102848808495684
524,0.102848808495684
525,0.10438384987378
526,0.102081287806637
527,0.102081264780786
528,0.102081264780786
529,0.100546200376839
530,0.0997786796877917
531,0.0997786796877917
532,0.0997786796877917
533,0.0982436383096963
534,0.0982436383096963
535,0.0982436383096963
536,0.0974760945947979
537,0.0951735325276545
538,0.0928709244088095
539,0.0905683393158155
540,0.0890332979377201
541,0.0921034037197618
542,0.0905683623416664
543,0.0874982335337737
544,0.0867306898188751
545,0.0867306898188751
546,0.0859631921556783
547,0.0859631921556783
548,0.0851956484407797
549,0.0851956484407797
550,0.0844281047258811
551,0.0828930633477857
552,0.0828930633477857
553,0.0821255426587379
554,0.0821255426587379
555,0.0821255426587379
556,0.0805904782547916
557,0.079822934539893
558,0.079822934539893
559,0.079822934539893
560,0.079822934539893
561,0.079822934539893
562,0.079822934539893
563,0.079822934539893
564,0.079822934539893
565,0.0790554138508452
566,0.0790554138508452
567,0.0759853080688035
568,0.0759853080688035
569,0.0752177873797558
570,0.0752177873797558
571,0.0752177873797558
572,0.0729152022867618
573,0.0721476585718631
574,0.0713801378828154
575,0.0721476585718631
576,0.0736827229758095
577,0.0744502436648572
578,0.0721476815977141
579,0.0713801378828154
580,0.0690775527898214
581,0.0713801378828157
582,0.0721476815977141
583,0.0721476815977141
584,0.06984509650472
585,0.0683100090749227
586,0.0698450734788691
587,0.0683100321007737
588,0.0683100090749227
589,0.0683100321007737
590,0.0698450734788691
591,0.0706126171937677
592,0.0660074470077796
593,0.0690775527898214
594,0.0660074470077796
595,0.0637048619147856
596,0.0683100321007737
597,0.067542511411726
598,0.0660074239819287
599,0.0660074470077796
600,0.0652399263187319
601,0.0637048619147856
602,0.0614022537959406
603,0.0629373181998869
604,0.0629373181998869
605,0.0637048388889346
606,0.0637048619147856
607,0.0637048619147856
608,0.0629373412257379
609,0.0629373412257379
610,0.0629373412257379
611,0.0637048619147856
612,0.0629373181998869
613,0.0621697975108392
614,0.0606347331068929
615,0.0606347331068929
616,0.0598672124178454
617,0.0567970836099525
618,0.0567970836099525
619,0.0575646273248511
620,0.0575646273248511
621,0.0590996687029466
622,0.0590996917287975
623,0.0583321710397498
624,0.0590996917287975
625,0.0583321480138989
626,0.0567971066358034
627,0.0575646273248511
628,0.0575646273248511
629,0.0560295859467557
630,0.0575646273248511
631,0.0575646273248511
632,0.0575646273248511
633,0.0552620422318571
634,0.0544944985169585
635,0.0521919364498153
636,0.0521919364498153
637,0.0521919364498153
638,0.0529594571388631
639,0.0537269778279108
640,0.0537269778279108
641,0.0537270008537617
642,0.0544944985169585
643,0.0552620422318573
644,0.0544944985169585
645,0.0537270008537617
646,0.0552620422318571
647,0.0529594571388631
648,0.0514243927349167
649,0.050656872045869
650,0.0529594571388631
651,0.0529594571388631
652,0.0537270008537617
653,0.0514243927349167
654,0.050656872045869
655,0.050656872045869
656,0.050656872045869
657,0.0498893283309704
658,0.050656872045869
659,0.0498893283309704
660,0.050656872045869
661,0.048354286952875
662,0.048354286952875
663,0.050656872045869
664,0.0498893283309704
665,0.0514243927349167
666,0.0491218306677736
667,0.048354286952875
668,0.048354286952875
669,0.0475867662638273
670,0.0452841811708332
671,0.0437491167668869
672,0.0445166604817853
673,0.0437491167668869
674,0.0452841811708332
675,0.0460517018598807
676,0.0452841811708332
677,0.0452841581449823
678,0.0437491167668869
679,0.0429815730519882
680,0.0429815960778392
681,0.0429815960778392
682,0.0445166374559346
683,0.0429815960778392
684,0.0399114902957974
685,0.0422140523629405
686,0.0406790109848451
687,0.0414465316738928
688,0.0445166374559346
689,0.0429815960778392
690,0.0422140523629405
691,0.0399114902957974
692,0.0406789879589942
693,0.0399114672699465
694,0.0406790109848451
695,0.0414465316738928
696,0.0414465316738928
697,0.0414465316738928
698,0.0422140523629405
699,0.0422140523629405
700,0.0429815960778392
701,0.0406790109848451
702,0.0406789879589942
703,0.0406790109848451
704,0.0399114902957974
705,0.0406790109848451
706,0.0399114672699465
707,0.0399114672699465
708,0.0406790109848451
709,0.0406790109848451
710,0.0399114672699465
711,0.0368413614879045
712,0.0383764258918511
713,0.039143946580899
714,0.0399114672699465
715,0.0391439465808986
716,0.0391439465808986
717,0.0399114672699465
718,0.0406789879589942
719,0.0383764028660001
720,0.0376088821769524
721,0.0376089052028034
722,0.0376088821769524
723,0.0360738177730063
724,0.0383764258918513
725,0.0383764258918511
726,0.0360738407988568
727,0.0345387763949107
728,0.0383764258918511
729,0.0376089052028034
730,0.0376088821769524
731,0.0376088821769524
732,0.0360738407988568
733,0.0360738407988568
734,0.0368413614879045
735,0.0383764258918506
736,0.0376088821769522
737,0.0360738407988575
738,0.0368413614879045
739,0.0345387763949107
740,0.0330037119909646
741,0.0322361913019162
742,0.0345387763949107
743,0.0368413614879045
744,0.0383764028659997
745,0.0368413614879045
746,0.0368413614879045
747,0.0360738407988568
748,0.0345387763949107
749,0.0353062970839584
750,0.0353062970839584
751,0.0345387763949107
752,0.0345387763949107
753,0.0337712326800123
754,0.0345387763949107
755,0.0353063201098093
756,0.033771255705863
757,0.0345387763949107
758,0.0330037350168155
759,0.0314686706128687
760,0.0307011268979708
761,0.0330037119909646
762,0.0368413614879052
763,0.0368413614879052
764,0.0399114902957974
765,0.039143946580899
766,0.0368413614879045
767,0.0353062970839584
768,0.0360738407988568
769,0.0330037119909639
770,0.0330037119909646
771,0.0360738177730059
772,0.039911490295797
773,0.039143946580899
774,0.0376088821769527
775,0.0368413614879052
776,0.0360738407988568
777,0.0360738407988575
778,0.0360738177730059
779,0.039143946580899
780,0.0376089052028031
781,0.0376089052028031
782,0.0383764258918513
783,0.0391439465808983
784,0.0399114902957974
785,0.0368413614879052
786,0.0368413614879045
787,0.0383764258918506
788,0.0376089052028036
789,0.0383764028660004
790,0.0399114672699465
791,0.0414465316738928
792,0.0429815960778389
793,0.0406790109848451
794,0.039911467269946
795,0.0437491167668866
796,0.0437491167668871
797,0.0429815960778389
798,0.042981573051988
799,0.0437491167668871
800,0.0437491167668869
