Wavelength,Abs
200,19.6026744173474
201,18.9095963043562
202,17.6401043974274
203,16.5824502960282
204,15.6736967280105
205,14.8532088911897
206,14.1455477469515
207,13.5146394314711
208,12.8983141702636
209,12.3004095667742
210,11.7232282521476
211,11.1483494765623
212,10.5657954710606
213,9.97249603775721
214,9.36307850880284
215,8.73677536350846
216,8.10970469752503
217,7.50642740316059
218,6.90929034338608
219,6.31906101586471
220,5.76413800845314
221,5.24221873605839
222,4.76328103671563
223,4.32578986904676
224,3.91899982827587
225,3.55058621339682
226,3.21440878981969
227,2.92198048300944
228,2.66332343190506
229,2.42231951782974
230,2.21048168927428
231,2.03164759573565
232,1.87353674500811
233,1.73077644621662
234,1.60873945931379
235,1.50972830031505
236,1.42223006678127
237,1.34624473568662
238,1.28023731170469
239,1.22804537525487
240,1.18276121710989
241,1.14361727052899
242,1.10984601482313
243,1.08144747301815
244,1.05688655768427
245,1.03539577115827
246,1.01620754669942
247,0.998554386644517
248,0.981668770304511
249,0.970155844839541
250,0.956340334281577
251,0.944827408816606
252,0.933314483351636
253,0.921801580912517
254,0.913358761229589
255,0.902613356453666
256,0.892635495392642
257,0.884192675709713
258,0.871912206529845
259,0.863469409872767
260,0.853491525785892
261,0.844281185413916
262,0.835070868067791
263,0.822790421913773
264,0.812812537826898
265,0.80436971814397
266,0.795159377771994
267,0.784413972996071
268,0.773668591245999
269,0.761388145091981
270,0.750642740316059
271,0.742199920633131
272,0.729919474479112
273,0.718406549014142
274,0.709196208642166
275,0.699218347581142
276,0.686937901427124
277,0.673889888532357
278,0.663912027471333
279,0.653934166410309
280,0.643956305349285
281,0.627838186672476
282,0.617860325611452
283,0.607882464550428
284,0.59560201839641
285,0.58408909293144
286,0.574878729533613
287,0.564900868472589
288,0.55645804878966
289,0.544945146350541
290,0.533432220885571
291,0.525756944917541
292,0.517314125234613
293,0.508103761836785
294,0.501963550272702
295,0.495823315682768
296,0.485077910906845
297,0.475100072871672
298,0.468192294566839
299,0.461284539287857
300,0.452074198915881
301,0.445933987351797
302,0.441328817165809
303,0.435188582575875
304,0.428280827296892
305,0.419838007613964
306,0.412930252334982
307,0.408325082148994
308,0.400649806180964
309,0.392974507187083
310,0.388369360026946
311,0.385299231219053
312,0.377623955251024
313,0.369948679282994
314,0.363808444693059
315,0.359203274507071
316,0.352295519228089
317,0.349225390420196
318,0.341550114452167
319,0.336944967292029
320,0.33233977408019
321,0.327734626920053
322,0.322361913019166
323,0.317756742833178
324,0.312384028932292
325,0.307011338057256
326,0.303941232275214
327,0.297033476996232
328,0.294730891903238
329,0.29396337121419
330,0.29012572171725
331,0.286288072220309
332,0.28245044574922
333,0.27861279625228
334,0.27477516978119
335,0.270169999595202
336,0.265564829409214
337,0.264029765005268
338,0.264029741979417
339,0.262494700601321
340,0.257121986700434
341,0.253284360229345
342,0.249446710732405
343,0.248679190043357
344,0.245609084261315
345,0.244841540546417
346,0.244841540546417
347,0.24330647614247
348,0.238701305956482
349,0.236398720863488
350,0.234096135770494
351,0.23563120017444
352,0.233328615081446
353,0.230258509299405
354,0.227955924206411
355,0.225653339113416
356,0.226420882828315
357,0.223350754020422
358,0.221048168927428
359,0.218745583834434
360,0.218745583834434
361,0.217978063145387
362,0.21644299874144
363,0.213372892959399
364,0.211070307866405
365,0.209535243462458
366,0.207232658369464
367,0.208000179058512
368,0.206465137680416
369,0.204162552587422
370,0.20109242377953
371,0.200324903090482
372,0.198022317997488
373,0.194184668500547
374,0.191882083407554
375,0.191114562718506
376,0.190347042029458
377,0.189579498314559
378,0.188044456936464
379,0.186509392532518
380,0.184974351154422
381,0.179601637253536
382,0.177299052160542
383,0.177299052160542
384,0.175763987756595
385,0.175763987756595
386,0.173461402663601
387,0.171158840596458
388,0.170391296881559
389,0.168856232477613
390,0.167321168073667
391,0.165018606006524
392,0.16271602091353
393,0.161180956509583
394,0.159645892105637
395,0.158878371416589
396,0.155808265634547
397,0.155040721919649
398,0.152738136826655
399,0.150435551733661
400,0.148132966640667
401,0.148132989666518
402,0.145062860858625
403,0.144295317143726
404,0.145062860858625
405,0.144295340169577
406,0.140457690672637
407,0.139690169983589
408,0.141225211361685
409,0.138155105579643
410,0.13892262626869
411,0.137387561864744
412,0.134317479108553
413,0.133549935393655
414,0.133549935393655
415,0.132014870989708
416,0.130479829611613
417,0.128944765207667
418,0.128944765207666
419,0.12740970080372
420,0.125107115710726
421,0.124339595021678
422,0.124339595021678
423,0.124339595021678
424,0.124339595021678
425,0.122037009928684
426,0.122037009928685
427,0.120501945524738
428,0.117431839742696
429,0.116664296027798
430,0.116664296027798
431,0.116664296027798
432,0.11589677533875
433,0.114361710934804
434,0.114361710934804
435,0.113594190245756
436,0.113594190245756
437,0.112826669556708
438,0.111291628178613
439,0.108989020059768
440,0.10822149937072
441,0.108989043085619
442,0.107453955655822
443,0.105918914277726
444,0.105151393588678
445,0.105151393588678
446,0.10438384987378
447,0.10438384987378
448,0.102081264780786
449,0.102081264780786
450,0.101313744091738
451,0.101313744091738
452,0.10054622340269
453,0.099011158998744
454,0.0982436383096963
455,0.098243638309696
456,0.0974760945947976
457,0.0967085739057499
458,0.0951735095018036
459,0.0951735095018036
460,0.0959410532167022
461,0.0951735095018036
462,0.0951735095018036
463,0.0928709474346605
464,0.0928709474346605
465,0.0913358830307141
466,0.0913358830307141
467,0.0913358830307141
468,0.0913358830307141
469,0.0898008186267678
470,0.0905683393158155
471,0.0905683393158155
472,0.0905683393158155
473,0.0913358830307141
474,0.0905683623416664
475,0.0898008186267678
476,0.0890332979377201
477,0.0874982335337737
478,0.0874982335337737
479,0.0859631691298274
480,0.084428127751732
481,0.0836606070626843
482,0.0836606070626843
483,0.0836606070626843
484,0.0821255426587379
485,0.0821255426587379
486,0.0821255426587379
487,0.0821255426587379
488,0.0813580219696902
489,0.0805904782547916
490,0.0798229575657439
491,0.0798229575657439
492,0.0798229575657439
493,0.0798229575657439
494,0.0798229575657439
495,0.0782878931617975
496,0.0782878931617975
497,0.0782878931617975
498,0.0782878931617975
499,0.0767528287578512
500,0.0759853080688035
501,0.0744502666907081
502,0.0736827229758095
503,0.0736827229758095
504,0.0736827229758095
505,0.0744502436648572
506,0.0729152022867618
507,0.0721476585718631
508,0.0721476585718631
509,0.0729152022867618
510,0.0721476585718631
511,0.0713801378828154
512,0.0729152022867618
513,0.0721476815977141
514,0.0721476585718631
515,0.0721476585718631
516,0.0706126171937677
517,0.0706126171937677
518,0.0706126171937677
519,0.0706126171937677
520,0.067542488385875
521,0.067542488385875
522,0.0683100321007737
523,0.065239903292881
524,0.0660074239819287
525,0.0660074239819287
526,0.0660074470077796
527,0.0667749676968273
528,0.065239903292881
529,0.0644723826038333
530,0.065239903292881
531,0.065239903292881
532,0.0637048619147856
533,0.0637048619147856
534,0.0644723826038333
535,0.0629373181998869
536,0.0629373181998869
537,0.0606347331068929
538,0.0621697975108392
539,0.0629373412257379
540,0.0621697975108392
541,0.0614022768217915
542,0.0614022768217915
543,0.0621697975108392
544,0.0614022537959408
545,0.0621697975108392
546,0.0614022768217915
547,0.0598672124178454
548,0.0606347561327438
549,0.0606347561327438
550,0.0598672124178454
551,0.0614022768217915
552,0.0590996687029466
553,0.0590996687029466
554,0.0590996687029466
555,0.0590996687029466
556,0.0590996687029466
557,0.0590996687029466
558,0.0590996687029466
559,0.0575646273248511
560,0.0575646273248511
561,0.0567971066358034
562,0.0567971066358034
563,0.0560295629209048
564,0.0560295629209048
565,0.0575646273248511
566,0.0575646273248511
567,0.0560295629209048
568,0.0560295629209048
569,0.0560295629209048
570,0.0544944985169585
571,0.0537269778279108
572,0.0537269778279108
573,0.0529594571388631
574,0.0521919134239642
575,0.0529594571388631
576,0.0544944985169585
577,0.0537270008537617
578,0.0529594571388631
579,0.0537269778279108
580,0.0498893513568213
581,0.0521919134239644
582,0.0529594571388631
583,0.0537269778279108
584,0.0544945215428094
585,0.0521919134239644
586,0.0529594571388631
587,0.0537270008537617
588,0.0521919134239644
589,0.0529594571388631
590,0.0514243927349167
591,0.0514244157607676
592,0.0529594571388631
593,0.0521919364498153
594,0.0514243927349167
595,0.0514244157607676
596,0.0544944985169585
597,0.0521919134239644
598,0.0521919134239644
599,0.0514244157607676
600,0.0514243927349167
601,0.0506568720458688
602,0.0514243927349167
603,0.050656872045869
604,0.0514243927349167
605,0.050656872045869
606,0.0498893283309704
607,0.0498893283309704
608,0.0498893513568213
609,0.0498893283309704
610,0.0498893283309704
611,0.0498893283309704
612,0.0491218306677736
613,0.0475867432379763
614,0.0468192225489288
615,0.048354286952875
616,0.048354286952875
617,0.048354286952875
618,0.0468192225489288
619,0.0460517018598809
620,0.0460517018598809
621,0.0475867432379763
622,0.048354286952875
623,0.048354286952875
624,0.048354286952875
625,0.0491218076419224
626,0.0491218076419224
627,0.0475867432379761
628,0.0460517018598809
629,0.0452841811708332
630,0.0475867662638273
631,0.048354286952875
632,0.0475867432379763
633,0.0445166374559346
634,0.0437491167668871
635,0.0445166374559346
636,0.0468192225489286
637,0.0468192225489286
638,0.048354286952875
639,0.0475867432379761
640,0.0460517018598807
641,0.0468192455747795
642,0.0452841811708334
643,0.0445166374559346
644,0.0437491167668869
645,0.0429815960778392
646,0.0445166604817853
647,0.0445166604817855
648,0.0445166604817855
649,0.0445166604817855
650,0.0437491167668871
651,0.0437491167668869
652,0.0445166374559346
653,0.0445166604817855
654,0.0437491167668869
655,0.0437491167668869
656,0.0452841811708332
657,0.0468192455747795
658,0.0468192455747795
659,0.0452841581449823
660,0.0452841811708332
661,0.0429815960778392
662,0.0452841811708332
663,0.0429815960778392
664,0.0437491167668869
665,0.0437491167668869
666,0.0422140523629405
667,0.0414465316738928
668,0.0406790109848451
669,0.0391439465808988
670,0.0391439465808988
671,0.0422140523629405
672,0.0422140523629405
673,0.0422140523629405
674,0.0429815960778392
675,0.0429815730519882
676,0.0429815960778392
677,0.0429815960778392
678,0.0414465316738928
679,0.0437491167668871
680,0.0437491167668869
681,0.0445166374559346
682,0.0437491167668869
683,0.0437491167668871
684,0.0437491167668869
685,0.0445166374559346
686,0.0437491167668869
687,0.0452841811708332
688,0.0460517018598807
689,0.0452841811708332
690,0.0437491167668869
691,0.0429815730519882
692,0.0422140753887917
693,0.0437491167668869
694,0.0437491167668869
695,0.0445166604817855
696,0.0429815730519882
697,0.0406790109848451
698,0.0414465316738928
699,0.0414465316738928
700,0.0445166374559346
701,0.0452841581449823
702,0.0437491167668869
703,0.0437491167668869
704,0.0445166604817855
705,0.0414465316738928
706,0.0429815960778392
707,0.0437491167668871
708,0.0437491167668869
709,0.0437491167668869
710,0.0437491167668869
711,0.0437491167668869
712,0.0452841811708334
713,0.0452841581449821
714,0.0445166374559348
715,0.0460517018598809
716,0.0460517018598809
717,0.0452841581449821
718,0.048354286952875
719,0.048354286952875
720,0.0483542869528747
721,0.048354286952875
722,0.0483542869528747
723,0.0468192455747795
724,0.0506568720458692
725,0.048354286952875
726,0.0483542869528747
727,0.0460517018598809
728,0.0483542869528747
729,0.0506568720458692
730,0.0506568720458688
731,0.0506568720458688
732,0.0521919134239646
733,0.0514243927349167
734,0.0521919364498153
735,0.0537270008537615
736,0.056029562920905
737,0.0575646273248511
738,0.0575646273248511
739,0.0583321480138989
740,0.0567970836099527
741,0.0567971066358037
742,0.0544945215428099
743,0.0552620422318573
744,0.0529594571388631
745,0.0537270008537621
746,0.0544945215428092
747,0.0552620422318573
748,0.0552620422318569
749,0.0529594571388631
750,0.0529594571388631
751,0.0544945215428092
752,0.0537269778279105
753,0.0537269778279105
754,0.0529594571388631
755,0.0514243927349167
756,0.0506568720458692
757,0.0483542869528747
758,0.0491218306677738
759,0.0475867432379761
760,0.0460517018598809
761,0.0483542869528754
762,0.0483542869528747
763,0.0483542869528754
764,0.0483542869528754
765,0.0460517018598809
766,0.0437491167668871
767,0.0437491167668871
768,0.0422140523629403
769,0.0391439465808983
770,0.039143946580899
771,0.0399114902957974
772,0.0429815730519887
773,0.0429815960778389
774,0.0406790109848451
775,0.0429815960778389
776,0.042981573051988
777,0.0422140523629403
778,0.0429815960778396
779,0.0429815960778389
780,0.0406790109848451
781,0.0406789879589942
782,0.0399114672699465
783,0.0399114672699465
784,0.0399114672699465
785,0.0414465316738928
786,0.0383764028660004
787,0.0406789879589942
788,0.0414465316738928
789,0.0406789879589942
790,0.0406789879589942
791,0.0399114672699465
792,0.0429815960778389
793,0.0422140523629403
794,0.039143946580899
795,0.0406790109848451
796,0.0429815960778389
797,0.0437491167668871
798,0.0422140753887912
799,0.0414465316738928
800,0.0414465316738928
