Wavelength,Abs
200,87.38770944931
201,86.6048305176921
202,87.016993249338
203,88.3686106989255
204,88.6472234951778
205,87.8827652443037
206,87.0929785574068
207,83.8048870446113
208,80.4983748510718
209,78.6033473195377
210,75.2599937645104
211,72.8169509808437
212,70.1045057412967
213,67.8272490843256
214,66.6483255167126
215,65.1171064298716
216,63.7263450337032
217,62.2227569679781
218,60.2471389581892
219,58.377439862678
220,56.7610251273962
221,55.4094076778087
222,54.0600928133142
223,53.0193243512809
224,51.9647403786896
225,50.9815365439812
226,50.2124731229212
227,49.3927528298153
228,48.8194091416598
229,48.2967223255501
230,47.5460795852341
231,46.9220790250327
232,46.42011547476
233,45.8651924673484
234,45.2158634711241
235,44.5964680811087
236,44.0162166376742
237,43.3576773010779
238,42.7405844961555
239,42.162635637814
240,41.6652772577273
241,41.1518007819896
242,40.6245087956939
243,40.1639917770951
244,39.6919618330314
245,39.2383525697115
246,38.7985588169497
247,38.3771857449318
248,37.9489049176349
249,37.502203409594
250,37.0739225822971
251,36.6663650208372
252,36.2472945339123
253,35.7936852705924
254,35.3515889327376
255,34.8772564035808
256,34.3614773427501
257,33.8595137924774
258,33.3414321465538
259,32.8164427453511
260,32.3190843652644
261,31.8102130597127
262,31.30824950944
263,30.8477324908412
264,30.4033335678934
265,29.9520268896665
266,29.5306538176486
267,29.1392143518396
268,28.7385645456587
269,28.3448224947567
270,27.9764088798777
271,27.6033900948126
272,27.2326738948406
273,26.8619576948685
274,26.4728208141525
275,26.0951968589015
276,25.7313884142085
277,25.3560670440504
278,24.9669301633344
279,24.5639777720605
280,24.1564202106005
281,23.7396523087686
282,23.3251869920297
283,22.9153268454767
284,22.5077692840168
285,22.1048168927428
286,21.7179825971198
287,21.3265431313109
288,20.9443140058738
289,20.5643874655298
290,20.1867635102788
291,19.8275602357717
292,19.4614492059857
293,19.1137588569436
294,18.7798840184594
295,18.4367988396033
296,18.0868059054682
297,17.7575362371701
298,17.4420820794299
299,17.1289305067827
300,16.8203841043215
301,16.5187454571393
302,16.230922320515
303,15.9454017689838
304,15.6667889727315
305,15.3881761764792
306,15.0612090932741
307,14.7549652759058
308,14.4970757454905
309,14.2483965554472
310,14.0112302908688
311,13.7832743666624
312,13.5553184424559
313,13.3181521778776
314,13.0924988387641
315,12.8691480847437
316,12.6504025009093
317,12.4454724276328
318,12.2290294288914
319,12.0148890152429
320,11.8030511866875
321,11.588910773039
322,11.3839806997626
323,11.1813532115791
324,10.9810283084886
325,10.7807034053981
326,10.5780759172146
327,10.3869613544961
328,10.2027545470566
329,10.0231529098031
330,9.84124868745655
331,9.66394963529601
332,9.49125575332146
333,9.32316704153289
334,9.15047315955834
335,8.98698961795576
336,8.83041383163217
337,8.67153546021558
338,8.51726225898497
339,8.36759422794036
340,8.21792619689575
341,8.06595558075814
342,7.91859013480652
343,7.77582985904089
344,7.63537216836826
345,7.49951964788161
346,7.37287746776693
347,7.24623528765226
348,7.12419827772358
349,7.00216126779489
350,6.8847294280522
351,6.76960017340249
352,6.65677350384579
353,6.55315717466106
354,6.44033050510435
355,6.33441159082662
356,6.23540043182788
357,6.12717893245716
358,6.02586518836542
359,5.93145919955266
360,5.83475062564691
361,5.74034463683416
362,5.64133347783541
363,5.54462490392966
364,5.45942925548888
365,5.36272068158313
366,5.26831469277038
367,5.1808164592366
368,5.09562081079582
369,5.00812257726205
370,4.92522951391426
371,4.84233645056648
372,4.76635114249767
373,4.6788529089639
374,4.6005650158021
375,4.52688229282629
376,4.45550215494348
377,4.38181943196767
378,4.30813670899186
379,4.23445398601605
380,4.16537643322623
381,4.1009040506224
382,4.03182649783257
383,3.96044635994976
384,3.89136880715994
385,3.83150159474209
386,3.76702921213826
387,3.70485941462742
388,3.64499220220957
389,3.58051981960574
390,3.52525777737388
391,3.46769315004903
392,3.41243110781718
393,3.35716906558532
394,3.29730185316747
395,3.24203981093562
396,3.19138293888975
397,3.14072606684388
398,3.08776660970502
399,3.03710973765915
400,2.98645286561328
401,2.93579599356741
402,2.88744170661453
403,2.83678483456866
404,2.78843054761579
405,2.74237884575591
406,2.69862972898902
407,2.65948578240812
408,2.61573666564124
409,2.57198754887435
410,2.52823843210746
411,2.48909448552656
412,2.44764795385267
413,2.40850400727177
414,2.36936006069087
415,2.33482128429596
416,2.29337475262207
417,2.25423080604117
418,2.21969202964626
419,2.18515325325135
420,2.15061447685644
421,2.11377311536853
422,2.07693175388063
423,2.04469556257871
424,2.0101567861838
425,1.97792059488189
426,1.94798698867296
427,1.91575079737105
428,1.88351460606913
429,1.8558835849532
430,1.82364739365128
431,1.79371378744236
432,1.76378018123344
433,1.7407543303035
434,1.71542589428056
435,1.69009745825763
436,1.6647690222347
437,1.63483541602577
438,1.61180956509583
439,1.58878371416589
440,1.56345527814296
441,1.53812684212002
442,1.51510099119008
443,1.49668031044613
444,1.4713518744232
445,1.45062860858625
446,1.42760275765631
447,1.40457690672637
448,1.38385364088942
449,1.36313037505248
450,1.34470969430852
451,1.32398642847158
452,1.30786833282062
453,1.28714506698367
454,1.26411921605373
455,1.24800112040277
456,1.22727785456583
457,1.20425200363589
458,1.18813390798493
459,1.17201581233397
460,1.15129254649702
461,1.13517445084606
462,1.11905635519511
463,1.10063567445115
464,1.0845175788002
465,1.07070206824223
466,1.05228138749828
467,1.03846587694031
468,1.02234778128936
469,1.00853227073139
470,0.99011158998744
471,0.976296079429475
472,0.962480568871511
473,0.953270228499535
474,0.941757303034565
475,0.925639207383606
476,0.91642886701163
477,0.898008186267678
478,0.884192675709713
479,0.874982335337737
480,0.870377165151749
481,0.858864239686779
482,0.845048729128815
483,0.833535803663845
484,0.826628048384862
485,0.817417708012886
486,0.805904782547916
487,0.798997027268934
488,0.787484101803964
489,0.778273761431987
490,0.773668591245999
491,0.762155665781029
492,0.752945325409053
493,0.746037570130071
494,0.736827229758095
495,0.725314304293124
496,0.720709134107136
497,0.71149879373516
498,0.69998586827019
499,0.690775527898214
500,0.683867772619232
501,0.676960017340249
502,0.667749676968273
503,0.658539336596297
504,0.653934166410309
505,0.647026411131327
506,0.640118655852345
507,0.633210900573362
508,0.62630314529438
509,0.619395390015398
510,0.612487634736416
511,0.610185049643422
512,0.600974709271446
513,0.594066953992464
514,0.59176436889947
515,0.582554028527494
516,0.575646273248511
517,0.571041103062523
518,0.564133347783541
519,0.557225592504559
520,0.548015252132583
521,0.543410081946595
522,0.541107496853601
523,0.534199741574619
524,0.527291986295636
525,0.520384231016654
526,0.515779060830666
527,0.511173890644678
528,0.504266135365696
529,0.497358380086714
530,0.492753209900726
531,0.490450624807732
532,0.481240284435756
533,0.476635114249767
534,0.474332529156773
535,0.467424773877791
536,0.462819603691803
537,0.455911848412821
538,0.451306678226833
539,0.444398922947851
540,0.442096337854857
541,0.435188582575875
542,0.430583412389887
543,0.428280827296892
544,0.42137307201791
545,0.416767901831922
546,0.414465316738928
547,0.412162731645934
548,0.407557561459946
549,0.400649806180964
550,0.396044635994976
551,0.391439465808988
552,0.386834295623
553,0.382229125437012
554,0.379926540344018
555,0.375321370158029
556,0.370716199972041
557,0.366111029786053
558,0.363808444693059
559,0.359203274507071
560,0.354598104321083
561,0.352295519228089
562,0.349992934135095
563,0.345387763949107
564,0.343085178856113
565,0.340782593763119
566,0.338480008670125
567,0.331572253391143
568,0.329269668298149
569,0.329269668298149
570,0.326967083205154
571,0.32466449811216
572,0.317756742833178
573,0.310848987554196
574,0.310848987554196
575,0.308546402461202
576,0.306243817368208
577,0.299336062089226
578,0.299336062089226
579,0.297033476996232
580,0.297033476996232
581,0.292428306810244
582,0.287823136624256
583,0.285520551531262
584,0.285520551531262
585,0.280915381345274
586,0.280915381345274
587,0.27861279625228
588,0.276310211159286
589,0.276310211159286
590,0.271705040973297
591,0.271705040973297
592,0.274007626066291
593,0.267099870787309
594,0.262494700601321
595,0.264797285694315
596,0.260192115508327
597,0.260192115508327
598,0.260192115508327
599,0.260192115508327
600,0.255586945322339
601,0.253284360229345
602,0.246376604950363
603,0.248679190043357
604,0.248679190043357
605,0.248679190043357
606,0.246376604950363
607,0.246376604950363
608,0.244074019857369
609,0.244074019857369
610,0.244074019857369
611,0.241771434764375
612,0.237166264578387
613,0.237166264578387
614,0.237166264578387
615,0.237166264578387
616,0.237166264578387
617,0.237166264578387
618,0.237166264578387
619,0.234863679485393
620,0.234863679485393
621,0.234863679485393
622,0.237166264578387
623,0.234863679485393
624,0.234863679485393
625,0.230258509299405
626,0.230258509299405
627,0.230258509299405
628,0.230258509299405
629,0.227955924206411
630,0.225653339113416
631,0.221048168927428
632,0.221048168927428
633,0.218745583834434
634,0.214140413648446
635,0.214140413648446
636,0.211837828555452
637,0.20493007327647
638,0.20493007327647
639,0.20493007327647
640,0.198022317997488
641,0.1934171478115
642,0.191114562718506
643,0.191114562718506
644,0.184206807439524
645,0.184206807439524
646,0.18190422234653
647,0.179601637253535
648,0.177299052160542
649,0.174996467067547
650,0.172693881974553
651,0.170391296881559
652,0.168088711788565
653,0.165786126695571
654,0.161180956509583
655,0.161180956509583
656,0.158878371416589
657,0.156575786323595
658,0.154273201230601
659,0.154273201230601
660,0.151970616137607
661,0.151970616137607
662,0.149668031044613
663,0.145062860858625
664,0.142760275765631
665,0.142760275765631
666,0.145062860858625
667,0.142760275765631
668,0.140457690672637
669,0.140457690672637
670,0.140457690672637
671,0.138155105579643
672,0.138155105579643
673,0.135852520486649
674,0.133549935393655
675,0.133549935393655
676,0.128944765207667
677,0.128944765207667
678,0.133549935393655
679,0.131247350300661
680,0.128944765207667
681,0.126642180114673
682,0.124339595021678
683,0.11973442483569
684,0.117431839742696
685,0.117431839742696
686,0.11973442483569
687,0.115129254649702
688,0.115129254649702
689,0.115129254649702
690,0.112826669556708
691,0.112826669556708
692,0.115129254649702
693,0.115129254649702
694,0.10822149937072
695,0.10822149937072
696,0.110524084463714
697,0.110524084463714
698,0.10822149937072
699,0.10822149937072
700,0.103616329184732
701,0.103616329184732
702,0.101313744091738
703,0.101313744091738
704,0.101313744091738
705,0.101313744091738
706,0.101313744091738
707,0.101313744091738
708,0.0967085739057502
709,0.0967085739057499
710,0.101313744091738
711,0.101313744091738
712,0.101313744091738
713,0.0990111589987442
714,0.099011158998744
715,0.099011158998744
716,0.099011158998744
717,0.099011158998744
718,0.0944059888127561
719,0.0921034037197618
720,0.0921034037197618
721,0.0921034037197618
722,0.0921034037197618
723,0.0898008186267675
724,0.0874982335337737
725,0.0874982335337737
726,0.0851956484407795
727,0.0851956484407795
728,0.0898008186267678
729,0.0898008186267678
730,0.0921034037197618
731,0.0898008186267678
732,0.0874982335337737
733,0.0851956484407795
734,0.0851956484407799
735,0.0851956484407799
736,0.0782878931617973
737,0.0759853080688035
738,0.0759853080688035
739,0.0736827229758097
740,0.073682722975809
741,0.0690775527898214
742,0.0690775527898214
743,0.0690775527898214
744,0.0667749676968271
745,0.0690775527898214
746,0.0667749676968271
747,0.0644723826038337
748,0.0621697975108395
749,0.0575646273248511
750,0.059867212417845
751,0.0575646273248511
752,0.0529594571388631
753,0.0506568720458692
754,0.0529594571388635
755,0.0529594571388631
756,0.0506568720458692
757,0.0483542869528754
758,0.0483542869528754
759,0.0483542869528754
760,0.0437491167668871
761,0.039143946580899
762,0.0368413614879052
763,0.0368413614879045
764,0.0368413614879052
765,0.039143946580899
766,0.039143946580899
767,0.0391439465808983
768,0.0414465316738928
769,0.0414465316738928
770,0.0368413614879045
771,0.0368413614879045
772,0.0322361913019162
773,0.0322361913019162
774,0.0322361913019162
775,0.0345387763949107
776,0.0322361913019162
777,0.0345387763949107
778,0.0345387763949107
779,0.0345387763949107
780,0.0299336062089226
781,0.0345387763949107
782,0.03453877639491
783,0.0322361913019162
784,0.0345387763949107
785,0.0345387763949107
786,0.0299336062089226
787,0.0322361913019169
788,0.0322361913019162
789,0.0299336062089226
790,0.0322361913019169
791,0.0345387763949107
792,0.0322361913019162
793,0.0345387763949107
794,0.0345387763949107
795,0.0322361913019169
796,0.0322361913019162
797,0.0299336062089226
798,0.0299336062089231
799,0.0299336062089226
800,0.0322361913019166
