Wavelength,Abs
200,7.22282566486487
201,7.03861885742535
202,6.69514992973764
203,6.38430094218344
204,6.09762909810568
205,5.82554028527494
206,5.58146626541757
207,5.3573479907081
208,5.13476475737672
209,4.91793798677783
210,4.71147287212327
211,4.50807784022489
212,4.30468283135237
213,4.10857932659043
214,3.91247584485433
215,3.71253469059545
216,3.51873379395235
217,3.33759709229487
218,3.15722793435229
219,2.98069640288079
220,2.80877004159529
221,2.65219425527169
222,2.50598010186657
223,2.37243016647292
224,2.24732305076219
225,2.13065873170854
226,2.02972875947425
227,1.93839287644354
228,1.85549981309575
229,1.77490933484096
230,1.70084286303355
231,1.63368412347928
232,1.57228184665748
233,1.51433347050103
234,1.46022272081567
235,1.41455476778739
236,1.37464330051745
237,1.33549935393655
238,1.30211187008813
239,1.27294578456826
240,1.24646605599883
241,1.22190516369079
242,1.20079812599639
243,1.18160992456339
244,1.16434053636594
245,1.14860618954658
246,1.13479067898862
247,1.12059141959905
248,1.10754342973014
249,1.09833308935816
250,1.08835522829714
251,1.07876111606771
252,1.06955077569573
253,1.0622592485593
254,1.05151386680923
255,1.0430710471263
256,1.03386070675433
257,1.02695295147534
258,1.02042896805381
259,1.00968356327789
260,1.00277580799891
261,0.992797946937883
262,0.983587606565907
263,0.973993494336481
264,0.963631861418008
265,0.955572813592529
266,0.943292367438511
267,0.932163190805139
268,0.918731452104624
269,0.9087535910436
270,0.899543250671624
271,0.884960196398761
272,0.871144685840797
273,0.85848046782933
274,0.844664957271365
275,0.8316169904283
276,0.817417708012886
277,0.798613255411485
278,0.784030224164473
279,0.771749778010455
280,0.756399203048544
281,0.74258369249058
282,0.726465596839621
283,0.711115021877711
284,0.694613177395154
285,0.681565187526238
286,0.668133448825723
287,0.652782873863812
288,0.637432298901901
289,0.625151852747883
290,0.612871406593866
291,0.603661066221889
292,0.587926719402529
293,0.576797565795008
294,0.56451711964099
295,0.552236650461122
296,0.540723724996151
297,0.52997834324608
298,0.521919295420601
299,0.510790118787229
300,0.505801199769642
301,0.497358380086714
302,0.485845454621744
303,0.47548382170327
304,0.467424773877791
305,0.459749497909761
306,0.455911848412821
307,0.447469028729893
308,0.44094504530836
309,0.436339875122372
310,0.428664599154342
311,0.422524364564407
312,0.416767901831922
313,0.414081544881479
314,0.407173789602497
315,0.400266034323515
316,0.397963449230521
317,0.391439465808988
318,0.387218067480449
319,0.382612897294461
320,0.377623955251024
321,0.371099971829491
322,0.369564907425544
323,0.366878550475101
324,0.363808444693059
325,0.357668210103125
326,0.353063039917137
327,0.346539056495604
328,0.342701406998663
329,0.342701406998663
330,0.338096236812675
331,0.333874838484137
332,0.328885896440699
333,0.322745684876616
334,0.319291807237125
335,0.317372970975729
336,0.311232759411646
337,0.307395109914705
338,0.30163864718222
339,0.299336062089226
340,0.292812078667693
341,0.287823136624256
342,0.283217966438268
343,0.275542690470238
344,0.268634935191256
345,0.262878472458771
346,0.257889530415333
347,0.251749295825399
348,0.246760376807812
349,0.242538955453423
350,0.238701328982333
351,0.232177322534949
352,0.226804631659913
353,0.222583233331375
354,0.220664397069979
355,0.21682677059889
356,0.209919015319908
357,0.206081365822967
358,0.206081365822967
359,0.203395008872524
360,0.200708674947931
361,0.19725479730844
362,0.194568440357997
363,0.1934171478115
364,0.189963270172009
365,0.187660685079015
366,0.184974328128571
367,0.182671743035577
368,0.181136701657482
369,0.179601637253535
370,0.173461402663601
371,0.17384517452105
372,0.172693881974553
373,0.171158817570607
374,0.169240004335062
375,0.166169898553021
376,0.165018606006524
377,0.164251062291625
378,0.161180956509583
379,0.156575786323595
380,0.158110850727541
381,0.155040721919649
382,0.154273201230601
383,0.150435551733661
384,0.148900510355565
385,0.146597925262571
386,0.144679089001176
387,0.144679089001176
388,0.141608983219134
389,0.13930639812614
390,0.13892262626869
391,0.13892262626869
392,0.135468748629199
393,0.134317456082702
394,0.130479829611613
395,0.128944765207667
396,0.128177244518619
397,0.128944765207666
398,0.125874659425625
399,0.125874659425625
400,0.124723366879128
401,0.122420781786134
402,0.120885717382187
403,0.120501945524738
404,0.118199360431744
405,0.118199360431744
406,0.114361733960655
407,0.112826669556708
408,0.110907856321164
409,0.109372791917217
410,0.110524084463714
411,0.110140312606265
412,0.109756563774666
413,0.109756563774666
414,0.107070206824223
415,0.103232557327283
416,0.10438384987378
417,0.104767621731229
418,0.102081264780786
419,0.103232557327283
420,0.102465036638235
421,0.100162451545241
422,0.100162451545241
423,0.0993949308561933
424,0.0986273871412947
425,0.097859866452247
426,0.0963248020483006
427,0.0940222169553066
428,0.0947897606702052
429,0.0947897606702052
430,0.0947897606702052
431,0.0936384681237082
432,0.0917196318623125
433,0.0905683393158155
434,0.0882657542228214
435,0.0882657542228214
436,0.0882657542228214
437,0.0851956484407797
438,0.084428127751732
439,0.084428127751732
440,0.0836605840368334
441,0.0836605840368334
442,0.0825092914903361
443,0.0813579989438393
444,0.0817417708012886
445,0.0805904782547916
446,0.0805904782547916
447,0.0794391857082943
448,0.0794391857082943
449,0.0790554138508452
450,0.0790554138508452
451,0.0782878931617975
452,0.0779041213043482
453,0.0767528287578512
454,0.0759853080688035
455,0.0748340155223065
456,0.0736827229758095
457,0.0736827229758095
458,0.0717639097402647
459,0.0702288453363184
460,0.0679262602433243
461,0.0683100321007737
462,0.0690775527898214
463,0.0660074470077796
464,0.0660074470077796
465,0.0656236751503303
466,0.0625535693682885
467,0.0625535693682885
468,0.0625535693682885
469,0.0606347331068927
470,0.0606347331068927
471,0.0583321480138989
472,0.0575646273248511
473,0.0575646273248511
474,0.0575646273248511
475,0.0564133347783541
476,0.0564133347783541
477,0.0552620422318571
478,0.0544945215428094
479,0.0537269778279108
480,0.0537269778279108
481,0.0537269778279108
482,0.0521919364498153
483,0.0510406439033183
484,0.0510406439033183
485,0.0502731001884197
486,0.049505579499372
487,0.0498893513568213
488,0.0475867662638273
489,0.0475867662638273
490,0.0491218076419227
491,0.0468192225489286
492,0.0468192225489286
493,0.0468192225489286
494,0.0445166374559346
495,0.0452841811708332
496,0.0445166374559346
497,0.0445166374559346
498,0.0445166374559346
499,0.0445166374559346
500,0.0433653449094376
501,0.0425978242203899
502,0.0422140523629405
503,0.0418303035313421
504,0.0399114672699465
505,0.0399114672699465
506,0.0399114672699465
507,0.0418303035313421
508,0.0387601747234495
509,0.0387601747234495
510,0.0410627598164435
511,0.0383764258918511
512,0.0372251333453541
513,0.0376088821769524
514,0.0372251333453541
515,0.0372251333453541
516,0.0364575896304554
517,0.03492254825236
518,0.0341550045374614
519,0.0341550045374614
520,0.03492254825236
521,0.03492254825236
522,0.0356900689414077
523,0.0333874838484137
524,0.0333874838484137
525,0.0333874838484137
526,0.032619963159366
527,0.032619963159366
528,0.0341550045374614
529,0.03492254825236
530,0.033771255705863
531,0.032619963159366
532,0.032619963159366
533,0.032619963159366
534,0.032619963159366
535,0.032619963159366
536,0.0280147929733779
537,0.0283985418049763
538,0.0257122078803838
539,0.0249446641654854
540,0.02340962278739
541,0.0257122078803838
542,0.0249446641654852
543,0.0237933716189882
544,0.0257122078803838
545,0.0257122078803838
546,0.0257122078803838
547,0.0257122078803838
548,0.0257122078803838
549,0.0234096227873898
550,0.0234096227873898
551,0.0222583302408927
552,0.0234096227873898
553,0.0234096227873898
554,0.0211070376943958
555,0.0203394939794971
556,0.0203394939794971
557,0.0203394939794971
558,0.0203394939794971
559,0.019188201433
560,0.0207232658369464
561,0.0203394939794971
562,0.0203394939794971
563,0.0203394939794971
564,0.019188201433
565,0.019188201433
566,0.019188201433
567,0.0188044526014017
568,0.0176531600549046
569,0.019188201433
570,0.019188201433
571,0.0188044526014017
572,0.0195719732904495
573,0.0172693881974554
574,0.0172693881974554
575,0.0188044526014017
576,0.0184206807439523
577,0.0176531600549046
578,0.0161180956509583
579,0.014583031247012
580,0.0165018675084076
581,0.0153505749619107
582,0.015734323793509
583,0.0130479898689166
584,0.0141992824154136
585,0.0165018675084077
586,0.0172693881974552
587,0.0168856163400059
588,0.0149668031044613
589,0.0165018675084076
590,0.0141992824154136
591,0.0118966973224195
592,0.0141992824154136
593,0.0118966973224195
594,0.014583031247012
595,0.0138155105579643
596,0.0149668031044613
597,0.0134317387005149
598,0.012280446154018
599,0.0115129254649702
600,0.0115129254649702
601,0.0126642180114673
602,0.0130479898689166
603,0.00997786106102391
604,0.0126642180114673
605,0.0118966973224197
606,0.0103616329184732
607,0.011129153607521
608,0.011129153607521
609,0.011129153607521
610,0.00959411222942541
611,0.0092103403719763
612,0.00882656851452687
613,0.00997786106102391
614,0.00997786106102391
615,0.00805904782547923
616,0.00805904782547923
617,0.0084428196829285
618,0.0084428196829285
619,0.0084428196829285
620,0.0084428196829285
621,0.0107454047759226
622,0.0084428196829285
623,0.0084428196829285
624,0.0115129254649702
625,0.0107454047759226
626,0.0084428196829285
627,0.00690775527898218
628,0.00767527596802996
629,0.0084428196829285
630,0.0076752759680298
631,0.00921034037197614
632,0.00729152713643146
633,0.00767527596802996
634,0.00767527596802996
635,0.00767527596802996
636,0.00729152713643146
637,0.00690775527898218
638,0.00690775527898218
639,0.00652398342153275
640,0.00729152713643146
641,0.00614023458993439
642,0.00652398342153275
643,0.0084428196829285
644,0.00498894204343734
645,0.00383764949694027
646,0.0049889420434375
647,0.00498894204343734
648,0.00575646273248511
649,0.00652398342153291
650,0.00537269087503584
651,0.00575646273248511
652,0.00575646273248511
653,0.00575646273248511
654,0.00575646273248511
655,0.00575646273248511
656,0.00614023458993439
657,0.00575646273248511
658,0.0042213983285388
659,0.0042213983285388
660,0.0042213983285388
661,0.00575646273248495
662,0.00537269087503584
663,0.00383764949694043
664,0.00230258509299395
665,0.00537269087503568
666,0.0049889420434375
667,0.0049889420434375
668,0.0049889420434375
669,0.00460517018598807
670,0.00614023458993439
671,0.00537269087503584
672,0.00383764949694043
673,0.00460517018598807
674,0.003453877639491
675,0.00230258509299395
676,0.00268635695044339
677,0.00115129254649706
678,0.00307010578204173
679,0.00383764949694043
680,0.00383764949694043
681,0.0049889420434375
682,0.00460517018598807
683,0.000767520689047784
684,0.00307010578204189
685,0.00307010578204173
686,0.00498894204343734
687,0.003453877639491
688,0.00307010578204173
689,0.00268635695044339
690,0.00575646273248511
691,0.00383764949694043
692,0.00537269087503584
693,0.0042213983285388
694,0.003453877639491
695,0.00191881323554468
696,0.00498894204343734
697,0.00307010578204173
698,0.0042213983285388
699,0.00230258509299395
700,0.00230258509299411
701,0.00230258509299411
702,0.00307010578204173
703,0.00230258509299411
704,0.003453877639491
705,0.003453877639491
706,0.00307010578204173
707,0.00307010578204173
708,0.00307010578204173
709,0.00460517018598823
710,0.00230258509299411
711,0.00153506440394649
712,0.00383764949694027
713,0.0049889420434375
714,0.0049889420434375
715,0.00460517018598823
716,0.00422139832853864
717,0.000383771857449272
718,-0.0011512925464969
719,-0.00191881323554484
720,-0.000383771857449272
721,-0.000767520689047625
722,0.00230258509299411
723,0.00191881323554452
724,-0.00268635695044339
725,-0.000383771857449592
726,0
727,-0.00383764949694027
728,-0.00191881323554484
729,-0.000383771857449272
730,-0.00115129254649722
731,-0.0011512925464969
732,-0.00230258509299444
733,-0.00268635695044306
734,-0.00307010578204141
735,-0.00575646273248511
736,-0.00921034037197644
737,-0.00882656851452716
738,-0.00921034037197581
739,-0.00921034037197644
740,-0.00921034037197644
741,-0.00614023458993439
742,-0.00805904782547891
743,-0.00729152713643192
744,-0.00614023458993439
745,-0.00844281968292882
746,-0.00690775527898202
747,-0.00537269087503584
748,-0.00767527596802964
749,-0.00921034037197644
750,-0.00614023458993439
751,-0.00575646273248511
752,-0.00729152713643129
753,-0.00422139832853896
754,-0.00422139832853896
755,-0.00345387763949132
756,-0.0049889420434375
757,-0.00345387763949132
758,-0.00422139832853896
759,-0.00345387763949132
760,-0.00460517018598823
761,-0.00153506440394681
762,0.00307010578204141
763,0.00345387763949132
764,0.00422139832853831
765,0.00422139832853896
766,0.00191881323554452
767,0.00345387763949068
768,0.00345387763949132
769,0.00537269087503584
770,0.00422139832853896
771,0.00537269087503584
772,0.00537269087503584
773,0.00690775527898202
774,0.00614023458993439
775,0.00690775527898202
776,0.00690775527898202
777,0.00652398342153275
778,0.00652398342153275
779,0.00614023458993439
780,0.00575646273248511
781,0.00959411222942571
782,0.00844281968292882
783,0.00729152713643129
784,0.00767527596802964
785,0.00805904782547955
786,0.00690775527898264
787,0.00882656851452716
788,0.00767527596803028
789,0.00652398342153275
790,0.00767527596802964
791,0.00844281968292818
792,0.00921034037197581
793,0.00805904782547891
794,0.00690775527898202
795,0.00767527596803028
796,0.00767527596802964
797,0.00805904782547955
798,0.00690775527898202
799,0.00844281968292818
800,0.00805904782547891
