Wavelength,Abs
200,14.9295779711159
201,14.5964706763467
202,13.9548169560904
203,13.3642038797374
204,12.8096646441833
205,12.2796863009372
206,11.811877755202
207,11.3885858699485
208,10.983714665439
209,10.6049394176415
210,10.2610866950705
211,9.94640008104523
212,9.65704188001703
213,9.39186082246526
214,9.14164659104381
215,8.91445818752645
216,8.70607423661049
217,8.51304086065644
218,8.3338229722345
219,8.15729146378886
220,7.99457544287533
221,7.83723213586268
222,7.68718033296062
223,7.54134995141295
224,7.40012471702541
225,7.25928327752118
226,7.12074440008409
227,6.98450810773999
228,6.84865558725334
229,6.70397649825216
230,6.56198374317558
231,6.41807217486345
232,6.27991706928381
233,6.13370291587869
234,5.98825630618846
235,5.8585439972659
236,5.73075052460473
237,5.61024857907999
238,5.49358426002634
239,5.38229265487358
240,5.2805951389244
241,5.18465410873354
242,5.09523703893837
243,5.01272774744804
244,4.93328856173974
245,4.86305971640342
246,4.80242498329653
247,4.74294151971028
248,4.68767947747843
249,4.6385576698365
250,4.59020338288363
251,4.54530297357025
252,4.50500773444285
253,4.46356120276896
254,4.4274873619701
255,4.39218106488614
256,4.35418841085174
257,4.31581198495989
258,4.28242450111148
259,4.24750197588497
260,4.21219565577516
261,4.17381925290916
262,4.1365941195638
263,4.10052027876495
264,4.06483020982354
265,4.02376745000709
266,3.98270469019065
267,3.94356074360975
268,3.89750904174987
269,3.85299238126809
270,3.81384843468719
271,3.76511039890271
272,3.71982621773188
273,3.673774515872
274,3.62657152146562
275,3.57591464941975
276,3.52756036246688
277,3.47498467718546
278,3.42471155397119
279,3.37290338937883
280,3.31418746950748
281,3.25854167844402
282,3.20097705111917
283,3.14648252957636
284,3.09083671548706
285,3.0351909244236
286,2.9783938177878
287,2.92236425486689
288,2.86633466892014
289,2.80992133414178
290,2.75312425053183
291,2.69747843644252
292,2.64260016606812
293,2.58887316521436
294,2.54090265011893
295,2.49254836316605
296,2.44265901180923
297,2.39392097602476
298,2.34863679485393
299,2.30642274249099
300,2.2626736257241
301,2.2216108428818
302,2.18208314746931
303,2.14485801412395
304,2.1087841733251
305,2.07424539693019
306,2.03817157915718
307,2.00017892512278
308,1.96909402636736
309,1.94069546153653
310,1.90884304209206
311,1.88159579283358
312,1.85358099986021
313,1.82134480855829
314,1.79563260067791
315,1.77068793651242
316,1.74420820794299
317,1.7192635437775
318,1.69201627149317
319,1.66745537918514
320,1.64289446385125
321,1.62217119801431
322,1.59530769758742
323,1.57036303342194
324,1.54772095434945
325,1.5273814373441
326,1.50473935827161
327,1.47941092224867
328,1.46060646964727
329,1.44103449635682
330,1.42107877423478
331,1.39958796468293
332,1.37886469884598
333,1.36006026927043
334,1.33895323157604
335,1.31861373759654
336,1.2971229280447
337,1.27755095475425
338,1.2587465251787
339,1.24147713698124
340,1.22228891252239
341,1.20118189785384
342,1.18352873779894
343,1.16549182891244
344,1.14783866885753
345,1.12980175997103
346,1.11214859991612
347,1.09603050426517
348,1.07876111606771
349,1.0618754997277
350,1.04383856781535
351,1.0261854307863
352,1.01275366905993
353,0.996251824577374
354,0.980901249615464
355,0.967085739057499
356,0.953654000356984
357,0.937535904706026
358,0.926406728072654
359,0.910672404279145
360,0.894938080485636
361,0.882273862474169
362,0.866155766823211
363,0.853107776954294
364,0.83890849453888
365,0.825092983980916
366,0.809358660187407
367,0.797845734722437
368,0.785949037400017
369,0.773668591245999
370,0.762155665781029
371,0.751410261005107
372,0.741432399944083
373,0.728384410075166
374,0.71917406970319
375,0.708044916095669
376,0.698450803866244
377,0.68847294280522
378,0.678111309886747
379,0.669668490203818
380,0.655852979645854
381,0.647410182988776
382,0.640886176541392
383,0.630908315480369
384,0.620162910704446
385,0.610568821500871
386,0.603661066221889
387,0.594450725849913
388,0.584472841763038
389,0.576797565795008
390,0.571041103062523
391,0.561446990833098
392,0.553387943007619
393,0.546480187728636
394,0.538421139903157
395,0.531129635792577
396,0.522303044252199
397,0.515779060830666
398,0.507336241147738
399,0.49889344449066
400,0.493136981758175
401,0.486996747168241
402,0.479321471200211
403,0.473181236610276
404,0.466657253188744
405,0.460900790456258
406,0.451690450084282
407,0.449387864991288
408,0.442096337854857
409,0.433653518171928
410,0.426745762892946
411,0.423291885253455
412,0.418686715067467
413,0.411778959788485
414,0.406406268913449
415,0.401417326870012
416,0.39450957159103
417,0.391439465808988
418,0.384531710530006
419,0.381077832890515
420,0.37493759830058
421,0.369181135568095
422,0.362657152146562
423,0.359970795196119
424,0.354598104321083
425,0.349225413446047
426,0.347690349042101
427,0.340782593763119
428,0.337712487981077
429,0.333874838484137
430,0.328502147609101
431,0.32466449811216
432,0.321594392330119
433,0.315454157740184
434,0.312384051958143
435,0.307778881772154
436,0.304708752964262
437,0.299719833946675
438,0.295114663760687
439,0.292812078667693
440,0.288974429170753
441,0.285136779673812
442,0.280915381345274
443,0.277845275563232
444,0.274007626066291
445,0.273240105377244
446,0.26671609892986
447,0.264797285694315
448,0.263262221290369
449,0.260192115508327
450,0.255586945322339
451,0.255586945322339
452,0.250981775136351
453,0.247911669354309
454,0.248679190043357
455,0.24752789749686
456,0.24369024799992
457,0.239085077813931
458,0.236398743889339
459,0.234863679485393
460,0.233328615081446
461,0.230258509299405
462,0.227955924206411
463,0.224885818424369
464,0.221048168927428
465,0.218361811976985
466,0.216059226883991
467,0.212221600412902
468,0.211837828555452
469,0.206848886512015
470,0.205697593965518
471,0.206465137680416
472,0.205697593965518
473,0.202627488183476
474,0.200324903090482
475,0.198406089854937
476,0.196871025450991
477,0.191498334575955
478,0.187660685079015
479,0.190347042029458
480,0.188811977625512
481,0.184974328128571
482,0.184206807439524
483,0.18190422234653
484,0.180369157942583
485,0.178450344707039
486,0.177682824017991
487,0.176147759614044
488,0.174612695210098
489,0.172310110117104
490,0.171542589428056
491,0.169240004335062
492,0.168856232477613
493,0.166553647384619
494,0.164251062291625
495,0.163099769745128
496,0.160797184652134
497,0.160029663963086
498,0.159645892105637
499,0.156192014466146
500,0.155040721919649
501,0.153505680541553
502,0.151203095448559
503,0.151203095448559
504,0.148900510355565
505,0.148132966640667
506,0.148132966640667
507,0.145062860858625
508,0.144295340169577
509,0.14314404762308
510,0.140841462530086
511,0.140841462530086
512,0.137387584890595
513,0.137387584890595
514,0.133549935393655
515,0.133549935393655
516,0.133549935393655
517,0.130479829611613
518,0.128944765207666
519,0.126642180114673
520,0.125874659425625
521,0.123572074332631
522,0.123572074332631
523,0.121653238071235
524,0.122804530617732
525,0.122420781786134
526,0.12011819669314
527,0.12011819669314
528,0.12011819669314
529,0.118966904146643
530,0.118966904146643
531,0.117815611600146
532,0.116664319053649
533,0.114745482792253
534,0.113210441414158
535,0.111675377010211
536,0.111675377010211
537,0.112826669556708
538,0.109756563774666
539,0.109756563774666
540,0.10822149937072
541,0.107453978681672
542,0.107453978681672
543,0.107453978681672
544,0.106686434966774
545,0.106686434966774
546,0.10438384987378
547,0.103616329184732
548,0.103616329184732
549,0.102081264780786
550,0.102081264780786
551,0.102465036638235
552,0.0982436383096963
553,0.0982436383096963
554,0.0993949308561933
555,0.0967085739057499
556,0.0967085739057499
557,0.0959410532167022
558,0.0944059888127559
559,0.0944059888127559
560,0.0951735095018036
561,0.0936384681237082
562,0.0921034037197618
563,0.0921034037197618
564,0.0921034037197618
565,0.0913358830307141
566,0.0928709244088095
567,0.0901845904842171
568,0.0886495260802708
569,0.0901845904842171
570,0.0917196318623125
571,0.0894170467693185
572,0.0894170467693185
573,0.0874982335337737
574,0.0863469409872767
575,0.0863469409872767
576,0.085579420298229
577,0.0840443558942827
578,0.0828930633477857
579,0.0828930633477857
580,0.0836605840368334
581,0.0817417708012886
582,0.0805904782547916
583,0.0782878931617975
584,0.0748340155223065
585,0.0771366006153008
586,0.0748340155223065
587,0.0748340155223065
588,0.0759853080688035
589,0.0736827229758095
590,0.0736827229758092
591,0.0732989511183601
592,0.0721476585718631
593,0.0713801378828154
594,0.0679262602433243
595,0.0690775527898214
596,0.0702288453363184
597,0.0690775527898214
598,0.0698450734788691
599,0.0679262602433243
600,0.0690775527898214
601,0.0667749676968273
602,0.066391195839378
603,0.0663911958393778
604,0.0679262602433243
605,0.0702288453363184
606,0.0633210900573363
607,0.0625535693682885
608,0.0629373181998869
609,0.0617860256533899
610,0.0621697975108392
611,0.0621697975108392
612,0.0610185049643422
613,0.0598672124178452
614,0.0587159198713482
615,0.0587159198713482
616,0.0610185049643422
617,0.0610185049643422
618,0.0598672124178452
619,0.0621697975108392
620,0.0602509842752945
621,0.0579483991823005
622,0.0621697975108392
623,0.0621697975108392
624,0.0633210900573363
625,0.0633210900573363
626,0.0637048619147856
627,0.0633210900573363
628,0.0625535693682888
629,0.0629373181998869
630,0.0625535693682885
631,0.0610185049643422
632,0.064088610746384
633,0.0633210900573363
634,0.0625535693682885
635,0.0625535693682885
636,0.0621697975108392
637,0.0610185049643422
638,0.0598672124178452
639,0.0587159198713482
640,0.0579483991823002
641,0.0579483991823002
642,0.0575646273248511
643,0.0552620422318571
644,0.0552620422318571
645,0.0541107496853601
646,0.0541107496853601
647,0.0529594571388631
648,0.0529594571388631
649,0.051808164592366
650,0.048354286952875
651,0.0491218076419227
652,0.049505579499372
653,0.0479705150954257
654,0.049505579499372
655,0.0472029944063779
656,0.0472029944063779
657,0.049505579499372
658,0.049505579499372
659,0.050656872045869
660,0.050656872045869
661,0.049505579499372
662,0.0521919364498153
663,0.0510406439033183
664,0.050656872045869
665,0.050656872045869
666,0.0521919364498153
667,0.0521919364498153
668,0.0514243927349167
669,0.0514243927349167
670,0.050656872045869
671,0.050656872045869
672,0.050656872045869
673,0.050656872045869
674,0.049505579499372
675,0.0475867662638273
676,0.0464354737173302
677,0.0468192225489286
678,0.0464354737173302
679,0.0472029944063779
680,0.0468192225489288
681,0.0456679300024316
682,0.0449004093133839
683,0.0437491167668869
684,0.0452841811708332
685,0.0441328886243362
686,0.0429815960778392
687,0.0433653449094376
688,0.0449004093133839
689,0.0460517018598809
690,0.0425978242203899
691,0.0472029944063779
692,0.0425978242203899
693,0.0425978242203899
694,0.0429815960778392
695,0.0418303035313421
696,0.0418303035313421
697,0.0433653449094376
698,0.0414465316738928
699,0.0402952391273956
700,0.0391439465808988
701,0.0414465316738928
702,0.0406790109848451
703,0.0395277184383481
704,0.0387601747234495
705,0.0372251333453541
706,0.0391439465808988
707,0.0410627598164435
708,0.0410627598164435
709,0.0376088821769524
710,0.0372251333453541
711,0.0360738407988568
712,0.03492254825236
713,0.03492254825236
714,0.0360738407988568
715,0.0360738407988568
716,0.0337712557058628
717,0.0303173780663717
718,0.0333874838484134
719,0.0333874838484139
720,0.0307011268979705
721,0.0287823136624256
722,0.0280147929733776
723,0.0283985418049763
724,0.0276310211159288
725,0.027247249258479
726,0.0260959567119822
727,0.0226420790724912
728,0.0234096227873898
729,0.0230258509299405
730,0.0218745583834433
731,0.0207232658369464
732,0.0165018675084077
733,0.0149668031044616
734,0.0122804461540179
735,0.00882656851452716
736,0.00652398342153275
737,0.00575646273248511
738,0.00690775527898202
739,0.00537269087503584
740,0.00422139832853896
741,0.00230258509299379
742,0.0049889420434375
743,0.00191881323554452
744,0.00422139832853831
745,0.00422139832853896
746,0.0049889420434375
747,0.00652398342153275
748,0.00882656851452654
749,0.00767527596802964
750,0.00921034037197644
751,0.011129153607521
752,0.011129153607521
753,0.0153505749619108
754,0.0153505749619108
755,0.0149668031044616
756,0.0153505749619108
757,0.0172693881974554
758,0.0168856163400061
759,0.0191882014329999
760,0.0203394939794974
761,0.0199557451478991
762,0.0226420790724912
763,0.0245609153338866
764,0.0257122078803836
765,0.0253284360229343
766,0.0234096227873898
767,0.0241771434764379
768,0.0253284360229343
769,0.0283985418049763
770,0.0322361913019162
771,0.0314686706128687
772,0.0326199631593662
773,0.0326199631593662
774,0.0330037119909639
775,0.0333874838484139
776,0.03492254825236
777,0.0376088821769522
778,0.0383764258918506
779,0.0376088821769527
780,0.0372251333453545
781,0.0410627598164435
782,0.0406790109848451
783,0.0425978242203896
784,0.0425978242203903
785,0.0410627598164435
786,0.0429815960778389
787,0.0429815960778389
788,0.0429815960778389
789,0.0429815960778389
790,0.0422140523629403
791,0.0441328886243357
792,0.0433653449094373
793,0.0433653449094373
794,0.0445166374559341
795,0.0456679300024316
796,0.0433653449094373
797,0.0441328886243357
798,0.0437491167668866
799,0.0425978242203903
800,0.0437491167668866
