Wavelength,Abs
200,34.6585108197464
201,33.2761922432609
202,30.7180202049445
203,28.5413097713761
204,26.6033006437642
205,24.8617787697458
206,23.3842866837585
207,22.0748832865339
208,20.846837911279
209,19.7339217906739
210,18.7537880387216
211,17.8695953630119
212,17.0644581241789
213,16.3283984381357
214,15.6391579516156
215,14.9944341255772
216,14.3988321071808
217,13.8607947391351
218,13.3503883691795
219,12.8653104352468
220,12.419376447895
221,12.0095163243679
222,11.6334274335208
223,11.2818994349818
224,10.9464895320937
225,10.6295003099496
226,10.3301642478603
227,10.055389101105
228,9.79212685678878
229,9.53270228499535
230,9.28325555123709
231,9.04685683037361
232,8.82811124653917
233,8.60859814201569
234,8.39522524905629
235,8.20334316564874
236,8.0260441134882
237,7.85565279358079
238,7.69216925197821
239,7.54250124395945
240,7.4058811797579
241,7.27770393523928
242,7.15950457480754
243,7.04437534318368
244,6.93999147028405
245,6.8455854814713
246,6.75808724793752
247,6.67596170527879
248,6.59920887652093
249,6.52706119492322
250,6.4564486007553
251,6.39120869746242
252,6.33134148504458
253,6.26917168753374
254,6.21007199580494
255,6.15327488916914
256,6.09417519744034
257,6.03430800804835
258,5.97674335769764
259,5.91687616830565
260,5.85240378570182
261,5.78716388240894
262,5.71808630659326
263,5.65054381820739
264,5.58146626541757
265,5.50701599872686
266,5.43103071368391
267,5.35351034121116
268,5.26677962836643
269,5.17851387414361
270,5.08794553482779
271,4.99123696092204
272,4.89452838701629
273,4.7962847487066
274,4.69190089883282
275,4.58751702593319
276,4.4877383462454
277,4.37951684687468
278,4.27206289121885
279,4.15923622166215
280,4.04257187958265
281,3.92437254217675
282,3.81154584959419
283,3.69641661797034
284,3.58742757488472
285,3.48227618129604
286,3.37482220261437
287,3.26967083205154
288,3.16989215236375
289,3.06627580015317
290,2.96879970555837
291,2.87516126046052
292,2.78689550623769
293,2.69862972898902
294,2.61496912192634
295,2.53821629316849
296,2.46299852881458
297,2.39085087024272
298,2.32254081511609
299,2.25499834975607
300,2.19206100853033
301,2.13372886051643
302,2.08000185966267
303,2.02473984045666
304,1.9710128396029
305,1.92112348824608
306,1.87353674500811
307,1.82825256383727
308,1.78527099078528
309,1.74459195677459
310,1.70621555390859
311,1.66937419242068
312,1.63023024583978
313,1.59262134063698
314,1.55808256424207
315,1.528148981059
316,1.49821535182423
317,1.46674670423721
318,1.43604557733924
319,1.40764701250841
320,1.37771340629949
321,1.34854734380546
322,1.32552149287552
323,1.29789047175959
324,1.27332955642571
325,1.24800112040277
326,1.22190516369079
327,1.19811176904595
328,1.1781560469239
329,1.158200301776
330,1.13594197153511
331,1.11598624941306
332,1.09603050426517
333,1.07760982352121
334,1.05611901396937
335,1.03846587694031
336,1.02081271688541
337,1.00315955683051
338,0.988576548609344
339,0.968620803461446
340,0.953270228499535
341,0.937152132848577
342,0.921034037197618
343,0.906451005950606
344,0.891100430988696
345,0.875749856026785
346,0.863469409872767
347,0.852724005096845
348,0.838908517564731
349,0.822790398887922
350,0.810509952733904
351,0.798997027268934
352,0.78518151671097
353,0.772901070556952
354,0.759853080688035
355,0.749107675912113
356,0.740664856229184
357,0.729151953790065
358,0.716871507636047
359,0.706126102860124
360,0.696915762488148
361,0.684635293308279
362,0.675424952936303
363,0.666214612564327
364,0.657771815907249
365,0.647793931820375
366,0.637048550070303
367,0.62630314529438
368,0.618627869326351
369,0.609417505928524
370,0.598672124178452
371,0.589461783806476
372,0.583321549216541
373,0.574878752559464
374,0.566435932876535
375,0.55645804878966
376,0.546480210754487
377,0.539572455475505
378,0.532664677170672
379,0.524989401202642
380,0.51808164592366
381,0.51040634692978
382,0.501196006557803
383,0.49505579499372
384,0.48738051902569
385,0.478937699342761
386,0.472797464752827
387,0.465889709473845
388,0.458214433505815
389,0.451306678226833
390,0.446701508040845
391,0.441328794139958
392,0.435956103264922
393,0.429815891700839
394,0.42137307201791
395,0.415232860453827
396,0.408325082148994
397,0.403719911963006
398,0.39834722108797
399,0.392974530212934
400,0.387601839337898
401,0.382229125437012
402,0.376088890847077
403,0.371483720661089
404,0.366111029786053
405,0.360738315885167
406,0.356900689414077
407,0.350760454824143
408,0.345387763949107
409,0.341550114452167
410,0.335409879862232
411,0.33233977408019
412,0.329269668298149
413,0.32466449811216
414,0.320826871641071
415,0.315454157740184
416,0.310081466865148
417,0.306243817368208
418,0.302406167871268
419,0.29780099768528
420,0.295498435618136
421,0.29012572171725
422,0.284753030842214
423,0.28245044574922
424,0.277845275563232
425,0.275542690470238
426,0.27093752028425
427,0.267867414502208
428,0.265564806383363
429,0.262494700601321
430,0.257889530415333
431,0.253284360229345
432,0.25174931885125
433,0.247911646328458
434,0.244074019857369
435,0.240236370360428
436,0.237933785267434
437,0.234096135770494
438,0.2317935506775
439,0.228723444895458
440,0.224885818424369
441,0.224118297735321
442,0.220280648238381
443,0.217978063145387
444,0.214907957363345
445,0.211837828555452
446,0.20876769974756
447,0.20876769974756
448,0.205697593965518
449,0.203395008872524
450,0.201859967494428
451,0.198789861712387
452,0.19725479730844
453,0.195719732904494
454,0.195719732904494
455,0.192649627122452
456,0.185741848817619
457,0.182671766061428
458,0.18190422234653
459,0.183439286750476
460,0.180369157942583
461,0.177299052160542
462,0.175763987756595
463,0.174996467067547
464,0.171926338259655
465,0.168856232477613
466,0.166553647384619
467,0.165018606006524
468,0.163483541602577
469,0.16271602091353
470,0.161180956509583
471,0.159645892105637
472,0.156575786323595
473,0.155808265634547
474,0.152738136826655
475,0.152738136826655
476,0.151203072422708
477,0.150435551733661
478,0.148900510355565
479,0.147365445951619
480,0.146597925262571
481,0.146597925262571
482,0.144295317143726
483,0.142760275765631
484,0.141992732050732
485,0.139690146957738
486,0.13892262626869
487,0.136620041175696
488,0.13508497677175
489,0.134317456082702
490,0.133549935393655
491,0.131247350300661
492,0.130479806585762
493,0.130479806585762
494,0.129712285896714
495,0.128944765207667
496,0.12740970080372
497,0.126642180114673
498,0.125874659425625
499,0.124339595021678
500,0.124339595021678
501,0.12357205130678
502,0.120501945524738
503,0.11973442483569
504,0.118199383457595
505,0.115129254649702
506,0.113594190245756
507,0.11205912584181
508,0.11205912584181
509,0.112059148867661
510,0.111291628178613
511,0.111291628178613
512,0.110524084463714
513,0.109756540748816
514,0.108989020059768
515,0.108989020059768
516,0.10822149937072
517,0.105918914277726
518,0.10438384987378
519,0.10438384987378
520,0.103616329184732
521,0.103616329184732
522,0.103616329184732
523,0.0997786796877917
524,0.0990111589987442
525,0.0990111589987442
526,0.10054622340269
527,0.10054622340269
528,0.0974760945947979
529,0.0974760945947979
530,0.0959410301908515
531,0.0959410532167025
532,0.0944059888127559
533,0.0928709244088095
534,0.0928709244088095
535,0.0921034037197618
536,0.0913358600048632
537,0.0890332979377201
538,0.0882657772486724
539,0.0851956484407795
540,0.0851956484407795
541,0.0851956484407795
542,0.084428127751732
543,0.0836605840368334
544,0.0836605840368334
545,0.0805904782547916
546,0.079822934539893
547,0.079822934539893
548,0.0790554138508452
549,0.0790554138508452
550,0.0775203724727498
551,0.0759853080688035
552,0.0759853080688035
553,0.0759853080688035
554,0.0752177873797558
555,0.0752177873797558
556,0.0752177873797558
557,0.0744502436648572
558,0.0736827229758092
559,0.0736827229758092
560,0.0713801378828154
561,0.0713801378828154
562,0.0713801378828154
563,0.0698450734788691
564,0.0690775527898214
565,0.06984509650472
566,0.06984509650472
567,0.067542511411726
568,0.067542511411726
569,0.0683100321007737
570,0.067542488385875
571,0.067542488385875
572,0.0667749676968273
573,0.0652399032928808
574,0.0644723826038333
575,0.0644723826038333
576,0.0629373181998869
577,0.0637048619147856
578,0.0606347331068929
579,0.0606347331068929
580,0.062169797510839
581,0.0598672124178452
582,0.0598672124178452
583,0.0590996917287975
584,0.0598672124178452
585,0.0567970836099525
586,0.0583321710397498
587,0.0567970836099525
588,0.0567971066358034
589,0.0567970836099525
590,0.0552620422318571
591,0.0544945215428094
592,0.0537270008537617
593,0.0567971066358034
594,0.0537269778279108
595,0.0537269778279108
596,0.0560295629209048
597,0.0560295629209048
598,0.0544945215428094
599,0.0529594571388631
600,0.0537270008537617
601,0.0498893513568213
602,0.0514244157607676
603,0.0529594571388631
604,0.0498893513568213
605,0.0498893283309704
606,0.0498893283309704
607,0.0498893283309704
608,0.0491218076419227
609,0.0491218076419227
610,0.0498893513568213
611,0.0491218306677736
612,0.0491218076419227
613,0.0498893513568213
614,0.048354286952875
615,0.048354286952875
616,0.048354286952875
617,0.0468192455747795
618,0.0498893513568213
619,0.0498893513568213
620,0.048354286952875
621,0.0468192225489286
622,0.0460517018598809
623,0.0452841811708332
624,0.0460517018598807
625,0.0460517018598809
626,0.0460517018598809
627,0.0475867662638273
628,0.0452841811708332
629,0.0437491167668869
630,0.0445166374559346
631,0.0445166374559346
632,0.0452841811708332
633,0.0437491167668869
634,0.0437491167668869
635,0.0429815960778392
636,0.0429815730519882
637,0.0429815960778392
638,0.0445166374559346
639,0.0437491167668869
640,0.0437491167668869
641,0.0429815960778392
642,0.0399114672699465
643,0.0406789879589942
644,0.0399114672699465
645,0.0399114902957974
646,0.0406790109848451
647,0.0422140753887915
648,0.0406790109848451
649,0.0414465316738928
650,0.0414465316738928
651,0.0399114902957974
652,0.0391439465808988
653,0.0383764258918511
654,0.0399114672699465
655,0.0399114672699465
656,0.0422140523629405
657,0.0414465316738928
658,0.0391439465808988
659,0.0391439465808988
660,0.0391439465808988
661,0.0399114902957974
662,0.0406790109848454
663,0.0406790109848451
664,0.0406790109848451
665,0.0414465316738928
666,0.0391439465808988
667,0.0376088821769524
668,0.0376088821769524
669,0.0368413614879047
670,0.0376088821769524
671,0.0360738177730059
672,0.0368413614879047
673,0.0391439465808988
674,0.0383764258918511
675,0.0376088821769524
676,0.036073840798857
677,0.0353062970839584
678,0.036073840798857
679,0.0345387763949107
680,0.0337712326800121
681,0.0353063201098093
682,0.0337712326800123
683,0.0353062970839584
684,0.0345387763949107
685,0.0345387763949107
686,0.0337712326800121
687,0.036073840798857
688,0.0353062970839584
689,0.0345387763949105
690,0.0345387763949107
691,0.0322361913019166
692,0.0322361913019169
693,0.0345387763949107
694,0.0337712326800121
695,0.0330037350168153
696,0.0322361913019166
697,0.0322361913019169
698,0.0330037350168153
699,0.0330037350168153
700,0.0322361913019169
701,0.0322361913019166
702,0.0299336062089226
703,0.0299336062089226
704,0.0307011268979703
705,0.031468647587018
706,0.0299336062089228
707,0.031468647587018
708,0.0322361913019166
709,0.0314686706128689
710,0.0299336062089226
711,0.0276310211159283
712,0.0291660855198749
713,0.0283985418049763
714,0.0299336062089228
715,0.0283985418049763
716,0.0268635004268811
717,0.0268634774010299
718,0.0253284360229345
719,0.0260959797378331
720,0.0260959567119822
721,0.0253284360229345
722,0.0260959797378331
723,0.0245608923080356
724,0.0245608923080356
725,0.0214907865259943
726,0.0214908095518449
727,0.0214908095518452
728,0.0214908095518449
729,0.0184206807439526
730,0.0184206807439526
731,0.0176531600549046
732,0.0153505749619105
733,0.0168856163400061
734,0.0191882014329999
735,0.0168856163400061
736,0.0161180956509585
737,0.0145830542728626
738,0.0153505749619108
739,0.0153505519360599
740,0.0122804691798694
741,0.0130479898689164
742,0.0122804461540179
743,0.013815510557964
744,0.0138155105579647
745,0.0153505749619108
746,0.0145830312470117
747,0.0145830312470123
748,0.0161180956509585
749,0.016885639365857
750,0.0191882014329999
751,0.016885639365857
752,0.0161180956509585
753,0.0184206807439523
754,0.0199557451478991
755,0.0207232658369467
756,0.0214907865259943
757,0.0222583302408928
758,0.0230258509299405
759,0.0199557221220481
760,0.0207232658369467
761,0.0222583072150419
762,0.0260959567119824
763,0.0268634774010295
764,0.0276310211159288
765,0.0283985648308272
766,0.0276310211159288
767,0.0260959797378334
768,0.0253284360229343
769,0.0253284360229343
770,0.0291660855198749
771,0.0314686475870178
772,0.0330037119909646
773,0.0330037350168155
774,0.0330037119909646
775,0.0314686706128687
776,0.0307011268979701
777,0.033771255705863
778,0.03453877639491
779,0.0353062970839591
780,0.0330037350168148
781,0.033771255705863
782,0.0360738407988568
783,0.0345387763949107
784,0.0345387763949107
785,0.0368413614879045
786,0.0383764258918513
787,0.0376088821769522
788,0.0368413614879045
789,0.0399114902957974
790,0.0406790109848451
791,0.0399114672699465
792,0.039911490295797
793,0.0383764258918506
794,0.039143946580899
795,0.0414465316738928
796,0.0406789879589942
797,0.0414465316738928
798,0.0422140523629403
799,0.0414465316738928
800,0.0422140523629403
