Wavelength,Abs
200,47.8596149297387
201,47.2348468258224
202,46.045561625291
203,44.9998042442401
204,43.9924232660552
205,42.9297802456384
206,41.8859416547972
207,40.9361253039372
208,40.0419547671665
209,39.1232233150618
210,38.2447871020846
211,37.4124025909673
212,36.5911472334574
213,35.7917664573569
214,35.005049876242
215,34.2601635986584
216,33.5478972842342
217,32.859424341429
218,32.2108628658937
219,31.5707442100414
220,30.9509650481685
221,30.3710973765915
222,29.8226983526014
223,29.3023141215848
224,28.80342070012
225,28.3087486539578
226,27.8229031993361
227,27.3804231126496
228,26.9575149762278
229,26.5223263936519
230,26.0913592094046
231,25.6803477703051
232,25.2869894912606
233,24.8851883925332
234,24.4818522294017
235,24.1107522805981
236,23.7477113565941
237,23.393113252273
238,23.0492605527278
239,22.7276661603977
240,22.4191197579365
241,22.1224700527977
242,21.8492299474205
243,21.5844326617262
244,21.3346021791363
245,21.1066462549299
246,20.8928896131389
247,20.6956348158305
248,20.5087416514405
249,20.3322101429949
250,20.1656564725844
251,20.0037079953858
252,19.8482835016087
253,19.6966966573285
254,19.5535526097054
255,19.4100248132508
256,19.2595892384912
257,19.1087699149001
258,18.9506590871984
259,18.7894781306889
260,18.6217731677319
261,18.4437065948823
262,18.2618023725358
263,18.0798981501892
264,17.8945400502032
265,17.6899937487842
266,17.4827610904147
267,17.2751446601878
268,17.0537127194029
269,16.8249892745075
270,16.5993359353941
271,16.3640884840512
272,16.1303760971123
273,15.8970474820309
274,15.651054648938
275,15.4081319216271
276,15.1771058686128
277,14.9299617429734
278,14.6820500736191
279,14.4326033628867
280,14.1770164175643
281,13.9241158291924
282,13.6719827615096
283,13.4279087416522
284,13.185369763173
285,12.952424919949
286,12.7198638255566
287,12.4861514386177
288,12.2535903442253
289,12.017959121025
290,11.79192203308
291,11.5704900922951
292,11.3475231101321
293,11.1360690304083
294,10.9322902496783
295,10.7315815977562
296,10.5350943211368
297,10.3416771733253
298,10.1555515526502
299,9.97364733030371
300,9.79289440050368
301,9.61789793343613
302,9.44904170095852
303,9.28824449328053
304,9.12245836658496
305,8.96127741007538
306,8.80853927324872
307,8.65388230016067
308,8.50843569047045
309,8.37526950390839
310,8.2386494627327
311,8.10509952733904
312,7.97116582008794
313,7.83915094909823
314,7.71097370457961
315,7.58548281701144
316,7.46728345657969
317,7.35138668124094
318,7.23165225640525
319,7.1161392298981
320,6.99717232575146
321,6.8835781355057
322,6.77765922122797
323,6.66560007236031
324,6.55891363739354
325,6.45491353635136
326,6.34630828814904
327,6.2453782928889
328,6.14866971898315
329,6.04697222605981
330,5.95256623724706
331,5.85624141217291
332,5.7633704877641
333,5.67165085590178
334,5.57954745218202
335,5.48552521220086
336,5.394189352196
337,5.30822616004032
338,5.22149547022145
339,5.13476475737672
340,5.04880158824689
341,4.96091958285567
342,4.8722700567754
343,4.78822570088112
344,4.70456511684429
345,4.62474215927854
346,4.55105943630273
347,4.47584164892298
348,4.39908882016512
349,4.32617361787836
350,4.25249089490255
351,4.17957571564164
352,4.11011439099437
353,4.04333942329754
354,3.97426187050772
355,3.9074869028109
356,3.84531710530006
357,3.78084472269622
358,3.71522104754589
359,3.65305125003505
360,3.59203274507071
361,3.52947917570242
362,3.46807692190648
363,3.40705841694214
364,3.34757495335589
365,3.28617269955995
366,3.22515419459561
367,3.17334603000324
368,3.11808398777139
369,3.06282194553953
370,3.00832742399672
371,2.9572867800934
372,2.90701367990498
373,2.85482174345517
374,2.8037811225777
375,2.75312425053183
376,2.70822384121845
377,2.66677730954455
378,2.62187690023117
379,2.57620894720289
380,2.53092478905791
381,2.48832696483752
382,2.44496159690223
383,2.40389883708578
384,2.36245230541189
385,2.31793566795596
386,2.27725665697111
387,2.23849648224766
388,2.19858499195186
389,2.15982481722841
390,2.12144839133656
391,2.08537457356356
392,2.05006825345375
393,2.0124593712768
394,1.97676930233539
395,1.94338181848697
396,1.90884304209206
397,1.8750717863862
398,1.84130055370619
399,1.80829681868937
400,1.77606062738746
401,1.74574327234694
402,1.71389082987662
403,1.68395722366769
404,1.65325609676972
405,1.62485755496475
406,1.59991286777341
407,1.56997926156449
408,1.54311578416346
409,1.51663605559403
410,1.4890050344781
411,1.46482789100166
412,1.44026697566778
413,1.41800864542688
414,1.39383150195045
415,1.37234071542445
416,1.34854734380546
417,1.32974289120406
418,1.30441445518113
419,1.28215612494023
420,1.26258415164978
421,1.24186088581284
422,1.22267268437984
423,1.20617081687143
424,1.18544755103448
425,1.16779441400543
426,1.15014125395053
427,1.13248809389562
428,1.11560247755562
429,1.09871686121561
430,1.08183122184975
431,1.06571312619879
432,1.05074632309433
433,1.03309318606528
434,1.01697509041432
435,1.00315957985636
436,0.989344069298392
437,0.974761015025529
438,0.961329276325014
439,0.94751376576705
440,0.937535904706026
441,0.922569101601565
442,0.909521111732648
443,0.896856893721181
444,0.882273862474169
445,0.872295978387294
446,0.860015532233276
447,0.848502606768306
448,0.837373453160785
449,0.82739556907391
450,0.814731351062443
451,0.803218425597473
452,0.791321751300904
453,0.780576346524982
454,0.767528356656065
455,0.75793426745249
456,0.75025896845861
457,0.739897335540136
458,0.73107076702561
459,0.720325362249687
460,0.710731273046112
461,0.700369640127639
462,0.692694341133758
463,0.683867772619232
464,0.673122367843309
465,0.661609442378339
466,0.654317938267758
467,0.645107597895782
468,0.635897257523806
469,0.630524543622919
470,0.621314203250943
471,0.613638927282913
472,0.60711494386138
473,0.598288352321003
474,0.592148140756919
475,0.584472841763038
476,0.578332630198955
477,0.570657331205074
478,0.565284640330038
479,0.55684182064711
480,0.550701609083026
481,0.546863959586086
482,0.540723724996151
483,0.533815969717169
484,0.529210799531181
485,0.522303044252199
486,0.516930353377163
487,0.509638826240732
488,0.505801199769642
489,0.498125900775762
490,0.494672023136271
491,0.48738051902569
492,0.482775348839702
493,0.477786406796265
494,0.472797464752827
495,0.468959838281738
496,0.462819603691803
497,0.460517018598809
498,0.453609263319827
499,0.447469028729893
500,0.445166443636899
501,0.438642460215366
502,0.431350933078934
503,0.427897055439443
504,0.422524364564407
505,0.42175684387536
506,0.417919194378419
507,0.411011439099437
508,0.407557561459946
509,0.405254976366952
510,0.400266034323515
511,0.396044635994976
512,0.392590758355485
513,0.387218067480449
514,0.381461604747964
515,0.37915901965497
516,0.376088890847077
517,0.371483720661089
518,0.36764609419
519,0.365343509097006
520,0.362273380289113
521,0.358435753818023
522,0.353063039917137
523,0.351527998539041
524,0.347690349042101
525,0.341550114452167
526,0.337712487981077
527,0.335409902888083
528,0.331572253391143
529,0.328502147609101
530,0.323129433708214
531,0.322745684876616
532,0.321210620472669
533,0.316221678429232
534,0.312384051958143
535,0.310081466865148
536,0.307011338057256
537,0.301254875324771
538,0.295498412592286
539,0.294730891903238
540,0.290893242406297
541,0.288590657313303
542,0.286288072220309
543,0.283217966438268
544,0.280147860656226
545,0.279380316941327
546,0.276693983016735
547,0.273240105377244
548,0.272472561662345
549,0.269018684022854
550,0.265948578240812
551,0.265181057551765
552,0.265181057551765
553,0.261727179912274
554,0.25520317346489
555,0.252133067682848
556,0.249830482589854
557,0.248679190043357
558,0.245609084261315
559,0.244457791714818
560,0.242155206621824
561,0.23985262152883
562,0.23985262152883
563,0.23601497203189
564,0.235247451342842
565,0.232177322534949
566,0.232177322534949
567,0.228723444895458
568,0.228723444895458
569,0.225269567255967
570,0.221815689616476
571,0.221815689616476
572,0.220664397069979
573,0.219513104523482
574,0.21682677059889
575,0.21682677059889
576,0.216059226883991
577,0.211454056698003
578,0.209151471605009
579,0.205697593965518
580,0.203011260040925
581,0.199941131233033
582,0.197638546140039
583,0.196871025450991
584,0.194568440357997
585,0.194952212215446
586,0.191498334575955
587,0.188428205768062
588,0.188044456936464
589,0.184590579296973
590,0.183823035582074
591,0.183055514893027
592,0.18152045048908
593,0.176531531471494
594,0.174612695210098
595,0.174612695210098
596,0.1742289463785
597,0.172693881974553
598,0.170775068739009
599,0.168856232477613
600,0.166937419242069
601,0.163867313460027
602,0.163867313460027
603,0.161564728367033
604,0.160413435820535
605,0.15849459955914
606,0.15465697308805
607,0.153889429373152
608,0.15465697308805
609,0.151586844280158
610,0.15081932359111
611,0.150051802902062
612,0.150051802902062
613,0.148132966640667
614,0.148132966640667
615,0.146597925262571
616,0.145830381547673
617,0.144295340169577
618,0.143911568312128
619,0.14314404762308
620,0.141225211361685
621,0.141992755076583
622,0.140073918815187
623,0.138538877437092
624,0.138155105579643
625,0.137387584890595
626,0.136620041175697
627,0.136620041175697
628,0.135468748629199
629,0.133933707251104
630,0.130863578443211
631,0.129712285896714
632,0.12779347266117
633,0.12779347266117
634,0.127025951972122
635,0.127025951972122
636,0.126642180114673
637,0.128560993350217
638,0.126258408257223
639,0.120885717382187
640,0.120885717382187
641,0.121653238071235
642,0.120885717382187
643,0.119350652978241
644,0.119350652978241
645,0.118199360431744
646,0.118199360431744
647,0.113977962103205
648,0.114745482792253
649,0.114361733960655
650,0.112059148867661
651,0.110907856321164
652,0.110524084463714
653,0.110140312606265
654,0.111291605152762
655,0.107453978681672
656,0.106302686135175
657,0.104767621731229
658,0.104000101042181
659,0.104767621731229
660,0.102465036638235
661,0.101313744091738
662,0.100929972234289
663,0.0997786796877917
664,0.097859866452247
665,0.0974760945947976
666,0.0974760945947976
667,0.098243638309696
668,0.0967085739057499
669,0.0967085739057499
670,0.0959410532167022
671,0.0947897606702052
672,0.0951735095018036
673,0.0944059888127559
674,0.0947897606702052
675,0.0921034037197618
676,0.0898008186267678
677,0.0917196318623125
678,0.0921034037197618
679,0.0924871755772109
680,0.0913358830307141
681,0.0878820053912231
682,0.0878820053912231
683,0.0894170467693185
684,0.086730712844726
685,0.0848118765833304
686,0.0863469409872767
687,0.0851956484407795
688,0.0840443558942827
689,0.083276835205235
690,0.083276835205235
691,0.0840443558942827
692,0.0836605840368334
693,0.083276835205235
694,0.0825092914903363
695,0.0794391857082946
696,0.0794391857082946
697,0.0798229575657439
698,0.0809742501122409
699,0.0790554138508452
700,0.0775203724727498
701,0.0771366006153005
702,0.0756015362113542
703,0.0759853080688035
704,0.0752177873797558
705,0.0717639097402647
706,0.0729152022867618
707,0.0717639097402647
708,0.0690775527898211
709,0.0686937809323718
710,0.0671587395542766
711,0.0671587395542769
712,0.0660074470077794
713,0.0633210900573363
714,0.0629373181998867
715,0.0567971066358032
716,0.0560295629209048
717,0.0583321480138989
718,0.0556458140893064
719,0.0533432289963121
720,0.0510406439033181
721,0.0491218076419227
722,0.0456679300024316
723,0.0418303035313419
724,0.0425978242203899
725,0.0383764258918511
726,0.0364575896304552
727,0.0333874838484134
728,0.0303173780663721
729,0.027247249258479
730,0.0257122078803838
731,0.0195719732904495
732,0.0149668031044616
733,0.0103616329184727
734,0.00460517018598823
735,0
736,-0.00422139832853896
737,-0.00690775527898264
738,-0.00767527596802964
739,-0.00460517018598823
740,-0.00537269087503584
741,-0.00844281968292882
742,-0.00652398342153275
743,-0.00345387763949068
744,-0.000767520689047625
745,-0.000767520689047625
746,0.0011512925464969
747,0.00307010578204205
748,0.00422139832853896
749,0.00614023458993439
750,0.00652398342153275
751,0.00959411222942571
752,0.010745404775922
753,0.0141992824154139
754,0.0153505749619108
755,0.0157343237935092
756,0.0211070376943953
757,0.0237933716189882
758,0.0283985418049763
759,0.0276310211159288
760,0.0295498343514733
761,0.0307011268979708
762,0.0314686706128694
763,0.0360738407988568
764,0.0376088821769522
765,0.0383764258918506
766,0.0422140523629403
767,0.0422140523629403
768,0.0406790109848451
769,0.0437491167668866
770,0.0472029944063779
771,0.0510406439033186
772,0.0564133347783543
773,0.0560295629209043
774,0.0583321480138989
775,0.0579483991823005
776,0.0590996917287973
777,0.0617860256533901
778,0.0629373181998869
779,0.0637048619147856
780,0.0648561544612824
781,0.0660074470077801
782,0.0683100321007739
783,0.0679262602433239
784,0.0686937809323716
785,0.0709963660253659
786,0.0725314304293122
787,0.0690775527898214
788,0.0729152022867613
789,0.0752177873797558
790,0.0752177873797558
791,0.0725314304293127
792,0.072915202286762
793,0.0752177873797558
794,0.0767528287578517
795,0.0759853080688035
796,0.0756015362113542
797,0.074066494833259
798,0.0775203724727503
799,0.0767528287578514
800,0.0759853080688037
