Wavelength,Abs
200,16.4565756596284
201,15.4292389362957
202,13.5576210275489
203,12.0371473454838
204,10.7933676234096
205,9.74300504914686
206,8.88874597964606
207,8.19106269646887
208,7.58241271122939
209,7.05972589511974
210,6.62185095559343
211,6.25036723493234
212,5.92877284260222
213,5.64824123311439
214,5.39725945797804
215,5.16815224122514
216,4.95900076962013
217,4.77556148286965
218,4.60824029177013
219,4.44437300133596
220,4.2943211984339
221,4.15309598707221
222,4.0226161574606
223,3.90364925331396
224,3.79197387630374
225,3.68260108438653
226,3.58282240469873
227,3.49071900097897
228,3.39976688980571
229,3.3068959653969
230,3.22054902440962
231,3.14149358753293
232,3.05975181673164
233,2.98069640288079
234,2.90509486666944
235,2.83678483456866
236,2.77423126520038
237,2.71359653209348
238,2.65296179898659
239,2.60038609067933
240,2.55279934744135
241,2.50482880932007
242,2.46223098509968
243,2.42615716732668
244,2.38854826212387
245,2.35631207082196
246,2.32330835883099
247,2.29529356585761
248,2.26919760914563
249,2.24310165243365
250,2.22007580150371
251,2.19666617871632
252,2.17210526338243
253,2.15291706194943
254,2.13411260934803
255,2.11262182282204
256,2.09074726443859
257,2.07232658369464
258,2.05467342363974
259,2.0289612387852
260,2.00938926549475
261,1.98866599965781
262,1.96448885618137
263,1.94184675408303
264,1.91805338246404
265,1.89349246713015
266,1.86854780296467
267,1.84475443134568
268,1.81558834582581
269,1.78411967521294
270,1.75533736155051
271,1.72233364955955
272,1.69240004335062
273,1.66093137273775
274,1.62639259634284
275,1.59492394875583
276,1.56307150628551
277,1.52776520920155
278,1.48862126262065
279,1.4502448367288
280,1.41263595455185
281,1.37425952866
282,1.3351155820791
283,1.2955878866666
284,1.26066533841424
285,1.22075387114429
286,1.18583132289193
287,1.15244383904352
288,1.11675377010211
289,1.07914488792516
290,1.0442223396728
291,1.01121862768184
292,0.980901249615464
293,0.949432579002594
294,0.920650265340169
295,0.894938080485636
296,0.866539515654809
297,0.84312991589327
298,0.818952772416833
299,0.795543149629443
300,0.773668591245999
301,0.749491447769562
302,0.731838287714657
303,0.7153364432321
304,0.695764469941651
305,0.678111309886747
306,0.658539336596297
307,0.642421240945339
308,0.631675836169416
309,0.617092804922404
310,0.601742229960494
311,0.588694263117428
312,0.576413793937559
313,0.563365827094494
314,0.550701609083026
315,0.540339976164553
316,0.528827050699583
317,0.51846541778111
318,0.505801199769642
319,0.495439566851169
320,0.485461682764294
321,0.476635114249767
322,0.468192294566839
323,0.458214433505815
324,0.451306678226833
325,0.442863858543904
326,0.432885997482881
327,0.425978242203898
328,0.416767901831922
329,0.408325082148994
330,0.400266034323515
331,0.394125822759431
332,0.388753108858544
333,0.382612897294461
334,0.374170077611532
335,0.370716199972041
336,0.364959737239556
337,0.357284461271526
338,0.354981876178532
339,0.346155284638155
340,0.343085178856113
341,0.338863780527574
342,0.331572253391143
343,0.326199562516107
344,0.320059327926172
345,0.316989222144131
346,0.311616508243244
347,0.304708752964262
348,0.302022419039669
349,0.296649705138783
350,0.292812078667693
351,0.292812078667693
352,0.287055615935208
353,0.285136779673812
354,0.281682902034321
355,0.276693983016735
356,0.274775146755339
357,0.272088812830747
358,0.267483642644759
359,0.262494700601321
360,0.259424594819279
361,0.256354466011387
362,0.254435652775842
363,0.249830482589854
364,0.247144125639411
365,0.241387662906925
366,0.241003914075327
367,0.237166264578387
368,0.234863679485393
369,0.232177322534949
370,0.22833969606386
371,0.226037110970866
372,0.221815689616476
373,0.218745583834434
374,0.216059226883991
375,0.214907934337494
376,0.211070307866405
377,0.20876772277341
378,0.20493007327647
379,0.201859967494428
380,0.199557382401434
381,0.19725479730844
382,0.194184668500548
383,0.189579498314559
384,0.186125620675068
385,0.183823035582074
386,0.18190422234653
387,0.178066572849589
388,0.175763987756595
389,0.174996467067547
390,0.17384517452105
391,0.171926361285506
392,0.168088711788565
393,0.169623776192512
394,0.168088711788565
395,0.163483541602577
396,0.161948477198631
397,0.160413435820535
398,0.159645892105637
399,0.157343307012643
400,0.155040721919649
401,0.153889429373152
402,0.152354387995056
403,0.149284259187164
404,0.147749217809068
405,0.145446632716074
406,0.144679089001176
407,0.142376503908182
408,0.140457690672637
409,0.138155105579643
410,0.138538877437092
411,0.137387584890595
412,0.133933707251104
413,0.133166163536205
414,0.13163112215811
415,0.129328537065116
416,0.128177244518619
417,0.12779347266117
418,0.126258408257223
419,0.123572074332631
420,0.123955823164229
421,0.123955823164229
422,0.120885717382187
423,0.118966904146643
424,0.121653238071235
425,0.12011819669314
426,0.119350652978241
427,0.117815611600146
428,0.117815611600146
429,0.114745482792253
430,0.113977962103205
431,0.113977962103205
432,0.110524084463714
433,0.109756563774666
434,0.109756563774666
435,0.108989020059768
436,0.108989020059768
437,0.106686434966774
438,0.105151393588678
439,0.105151393588678
440,0.104000101042181
441,0.102848808495684
442,0.102848808495684
443,0.102848808495684
444,0.0990111589987442
445,0.0982436383096963
446,0.0982436383096963
447,0.0955572813592529
448,0.0947897606702052
449,0.0963248020483006
450,0.0947897606702052
451,0.0940222169553066
452,0.0917196318623125
453,0.0909521111732648
454,0.0894170467693185
455,0.0894170467693185
456,0.0894170467693185
457,0.0886495260802708
458,0.0863469409872767
459,0.085579420298229
460,0.086730712844726
461,0.0836605840368334
462,0.0836605840368334
463,0.0828930633477857
464,0.0821255426587379
465,0.0805904782547916
466,0.0790554138508452
467,0.0794391857082943
468,0.0794391857082943
469,0.0790554138508452
470,0.0790554138508452
471,0.0782878931617975
472,0.0775203724727498
473,0.0752177873797558
474,0.0752177873797558
475,0.0752177873797558
476,0.0752177873797558
477,0.0752177873797558
478,0.0721476585718631
479,0.0721476585718631
480,0.0732989511183601
481,0.0709963660253659
482,0.0709963660253659
483,0.0721476585718631
484,0.0713801378828154
485,0.0713801378828154
486,0.0706126171937677
487,0.0706126171937677
488,0.0690775527898214
489,0.067542488385875
490,0.0690775527898214
491,0.0690775527898214
492,0.067542488385875
493,0.0667749676968273
494,0.0660074470077796
495,0.067542488385875
496,0.0667749676968273
497,0.065239903292881
498,0.0660074470077796
499,0.064088610746384
500,0.0629373181998869
501,0.0629373181998869
502,0.0629373181998869
503,0.0583321480138989
504,0.0583321480138989
505,0.0614022768217915
506,0.0606347331068929
507,0.0602509842752945
508,0.0602509842752945
509,0.0614022768217915
510,0.0590996917287975
511,0.0590996917287975
512,0.0598672124178452
513,0.0598672124178452
514,0.0598672124178452
515,0.0590996917287975
516,0.0579483991823005
517,0.0579483991823005
518,0.0571808554674018
519,0.0571808554674018
520,0.0560295629209048
521,0.0560295629209048
522,0.0552620422318571
523,0.0564133347783541
524,0.0575646273248511
525,0.0564133347783541
526,0.0548782703744078
527,0.0548782703744078
528,0.0552620422318571
529,0.0552620422318571
530,0.0537269778279108
531,0.0525756852814137
532,0.0525756852814137
533,0.0548782703744078
534,0.0548782703744078
535,0.0525756852814137
536,0.051808164592366
537,0.0525756852814137
538,0.0529594571388631
539,0.0529594571388631
540,0.0514243927349167
541,0.051808164592366
542,0.0510406439033183
543,0.051808164592366
544,0.0525756852814137
545,0.0525756852814137
546,0.0529594571388631
547,0.0529594571388631
548,0.0529594571388631
549,0.0529594571388631
550,0.0529594571388631
551,0.048354286952875
552,0.0491218076419224
553,0.0491218076419224
554,0.0475867662638273
555,0.0475867662638273
556,0.0475867662638273
557,0.0475867662638273
558,0.0475867662638273
559,0.0464354737173302
560,0.0460517018598807
561,0.0460517018598807
562,0.0460517018598807
563,0.0460517018598807
564,0.0468192225489286
565,0.0498893513568213
566,0.0498893513568213
567,0.0487380588103243
568,0.0464354737173302
569,0.0449004093133839
570,0.0449004093133839
571,0.0449004093133839
572,0.0452841811708332
573,0.0456679300024316
574,0.0456679300024316
575,0.0472029944063779
576,0.0464354737173302
577,0.0464354737173302
578,0.0464354737173302
579,0.0441328886243362
580,0.0449004093133839
581,0.0437491167668869
582,0.0456679300024316
583,0.0441328886243362
584,0.0437491167668869
585,0.0468192225489288
586,0.0422140523629405
587,0.0406790109848451
588,0.0406790109848451
589,0.0414465316738928
590,0.0414465316738928
591,0.0433653449094376
592,0.0402952391273958
593,0.0422140523629405
594,0.0422140523629405
595,0.0406790109848451
596,0.0406790109848451
597,0.0399114672699465
598,0.0387601747234495
599,0.0395277184383481
600,0.0399114672699465
601,0.0379926540344018
602,0.0368413614879047
603,0.0372251333453541
604,0.0372251333453541
605,0.0383764258918511
606,0.0399114672699465
607,0.0406790109848451
608,0.0395277184383481
609,0.0395277184383481
610,0.0391439465808988
611,0.0368413614879047
612,0.0368413614879047
613,0.0368413614879047
614,0.0379926540344018
615,0.0383764258918511
616,0.0383764258918511
617,0.0379926540344018
618,0.0368413614879047
619,0.0383764258918511
620,0.0383764258918511
621,0.0372251333453541
622,0.0379926540344018
623,0.0379926540344018
624,0.0376088821769524
625,0.0368413614879047
626,0.0356900689414077
627,0.0356900689414077
628,0.0345387763949107
629,0.0345387763949107
630,0.036073840798857
631,0.0353062970839584
632,0.0333874838484137
633,0.0330037119909643
634,0.0341550045374614
635,0.033771255705863
636,0.0345387763949107
637,0.036073840798857
638,0.036073840798857
639,0.0364575896304554
640,0.036073840798857
641,0.0353062970839584
642,0.0368413614879047
643,0.0376088821769524
644,0.0372251333453541
645,0.0376088821769524
646,0.0391439465808988
647,0.0399114672699465
648,0.0395277184383481
649,0.0383764258918511
650,0.0395277184383483
651,0.0395277184383481
652,0.0368413614879047
653,0.0372251333453541
654,0.0391439465808988
655,0.0379926540344018
656,0.0376088821769524
657,0.036073840798857
658,0.0345387763949107
659,0.032619963159366
660,0.0322361913019166
661,0.032619963159366
662,0.0345387763949107
663,0.0345387763949107
664,0.0341550045374614
665,0.0341550045374614
666,0.03492254825236
667,0.0353062970839584
668,0.0364575896304554
669,0.0353062970839584
670,0.0341550045374614
671,0.036073840798857
672,0.0372251333453541
673,0.036073840798857
674,0.033771255705863
675,0.0330037119909643
676,0.033771255705863
677,0.03492254825236
678,0.0345387763949105
679,0.0345387763949107
680,0.036073840798857
681,0.036073840798857
682,0.0353062970839584
683,0.036073840798857
684,0.0376088821769524
685,0.0356900689414077
686,0.0356900689414077
687,0.0376088821769524
688,0.0353062970839584
689,0.0341550045374614
690,0.0341550045374614
691,0.0353062970839584
692,0.0349225482523602
693,0.0341550045374614
694,0.0353062970839584
695,0.0364575896304556
696,0.0345387763949107
697,0.032619963159366
698,0.033771255705863
699,0.03492254825236
700,0.033771255705863
701,0.032619963159366
702,0.0353062970839584
703,0.036073840798857
704,0.033771255705863
705,0.0333874838484137
706,0.03492254825236
707,0.032619963159366
708,0.0322361913019169
709,0.0345387763949107
710,0.0303173780663721
711,0.0291660855198749
712,0.0260959567119822
713,0.0291660855198749
714,0.0291660855198749
715,0.0276310211159288
716,0.0287823136624256
717,0.0264797285694315
718,0.0276310211159288
719,0.0264797285694318
720,0.0264797285694315
721,0.0253284360229345
722,0.0253284360229345
723,0.0222583302408928
724,0.021490786525994
725,0.0226420790724912
726,0.0226420790724912
727,0.0203394939794971
728,0.0191882014330002
729,0.0165018675084077
730,0.0176531600549046
731,0.0138155105579643
732,0.0138155105579643
733,0.0145830312470117
734,0.013815510557964
735,0.00997786106102407
736,0.00652398342153275
737,0.00767527596802964
738,0.00882656851452716
739,0.0103616329184733
740,0.0126642180114671
741,0.011129153607521
742,0.0107454047759226
743,0.0126642180114671
744,0.0134317387005148
745,0.013815510557964
746,0.0145830312470123
747,0.0141992824154133
748,0.018036908886503
749,0.0184206807439523
750,0.0176531600549046
751,0.018036908886503
752,0.021107037694396
753,0.0214907865259943
754,0.0237933716189882
755,0.0237933716189882
756,0.0249446641654856
757,0.0230258509299405
758,0.0257122078803836
759,0.0283985418049763
760,0.0280147929733779
761,0.0280147929733779
762,0.0272472492584795
763,0.0283985418049763
764,0.0287823136624256
765,0.0303173780663717
766,0.0303173780663717
767,0.0310848987554194
768,0.0318524194444676
769,0.0376088821769522
770,0.0379926540344013
771,0.0376088821769527
772,0.0410627598164435
773,0.039143946580899
774,0.0391439465808983
775,0.039143946580899
776,0.0395277184383483
777,0.0410627598164435
778,0.0422140523629403
779,0.0425978242203896
780,0.0433653449094373
781,0.0449004093133834
782,0.0456679300024311
783,0.0460517018598809
784,0.0452841811708328
785,0.0445166374559348
786,0.0464354737173302
787,0.0456679300024316
788,0.0498893513568215
789,0.0498893513568208
790,0.0495055794993718
791,0.0506568720458692
792,0.0514243927349167
793,0.0514243927349167
794,0.0525756852814137
795,0.0529594571388631
796,0.0548782703744082
797,0.0541107496853598
798,0.0529594571388631
799,0.053726977827911
800,0.0564133347783539
