Wavelength,Abs
200,19.5382020347435
201,19.1026297033361
202,18.2921197506021
203,17.585993647742
204,16.9466425125787
205,16.3425976975252
206,15.8030252650756
207,15.3137259328144
208,14.8451498663901
209,14.4057398624598
210,13.9977985521683
211,13.6140343623273
212,13.2586687373172
213,12.9290152971616
214,12.6116423261858
215,12.3084686145997
216,12.017959121025
217,11.7485566651447
218,11.4895158421828
219,11.2339288968605
220,10.9910061695496
221,10.7607476602502
222,10.5466072466018
223,10.3478174079152
224,10.1559353245077
225,9.97403110216116
226,9.79366192119272
227,9.62288687547957
228,9.46170591896998
229,9.29438472787047
230,9.13320377136088
231,8.97969809081933
232,8.82926253908567
233,8.67498933785507
234,8.52378624240651
235,8.38294480290227
236,8.24555721801168
237,8.11622868094656
238,7.98766768759634
239,7.86716574207161
240,7.75740917829694
241,7.64765261452227
242,7.54672264228798
243,7.44809525514669
244,7.35791066466247
245,7.27309878807914
246,7.1921245379669
247,7.11805804313364
248,7.04744544896573
249,6.98489187959744
250,6.9215707895401
251,6.86055228457576
252,6.80183636470441
253,6.74695809433
254,6.69514992973764
255,6.63873659495928
256,6.58539336596297
257,6.52936380304207
258,6.4756368021883
259,6.42114230367135
260,6.36511271772459
261,6.30678056971069
262,6.2472971291503
263,6.1881974374215
264,6.1302490382392
265,6.06769549189676
266,6.00322310929293
267,5.94143706061369
268,5.87120821527737
269,5.80328195503404
270,5.73957711614511
271,5.67011579149784
272,5.59873565361502
273,5.53272820660724
274,5.45866173479984
275,5.38804911760607
276,5.32127414990924
277,5.24874271947993
278,5.17582751719317
279,5.09907468843531
280,5.02078679527352
281,4.94403396651567
282,4.86689736590036
283,4.78937699342761
284,4.71300791350136
285,4.64124402678695
286,4.56602623940719
287,4.49195974457393
288,4.41405562326959
289,4.33730279451173
290,4.26323629967848
291,4.18955357670267
292,4.1177896669624
293,4.04947965788748
294,3.97848326883626
295,3.91017325976134
296,3.83917687071012
297,3.77700707319928
298,3.71637234009239
299,3.6534350218925
300,3.59241651692816
301,3.53523563843491
302,3.47997359620305
303,3.4235602614247
304,3.36906576290774
305,3.31533876205398
306,3.26007671982212
307,3.21133868403765
308,3.16260062522732
309,3.113862566417
310,3.06474075877508
311,3.02252670641213
312,2.97877758964525
313,2.93234211592792
314,2.88859299916103
315,2.84561140308319
316,2.80569993581324
317,2.7657884685433
318,2.7258769782475
319,2.68596551097755
320,2.64451897930366
321,2.60575880458021
322,2.56930119192391
323,2.5332273741509
324,2.4956184689481
325,2.46069594372159
326,2.41924941204769
327,2.38432686379533
328,2.35247444435087
329,2.31563308286296
330,2.28262934784615
331,2.24770682261964
332,2.21431933877122
333,2.18246689630091
334,2.15138199754549
335,2.11837828555452
336,2.08614209425261
337,2.05505719549719
338,2.02397229674177
339,1.99442246239029
340,1.96602389755947
341,1.93685783506544
342,1.90347035121703
343,1.87276920129321
344,1.84168430253779
345,1.81405328142186
346,1.78642226030593
347,1.7595587829049
348,1.73538163942846
349,1.70890191085903
350,1.68011959719661
351,1.65632620255177
352,1.63099776652883
353,1.60720439490984
354,1.58187595888691
355,1.55808258726792
356,1.53659177771608
357,1.51471721933263
358,1.4905400758562
359,1.4678979967837
360,1.4502448367288
361,1.42760275765631
362,1.40534442741542
363,1.38462116157847
364,1.36581673200292
365,1.34355840176203
366,1.32014877897464
367,1.30249564194558
368,1.28253989679768
369,1.26104911027169
370,1.24493101462073
371,1.22497526947283
372,1.20885717382187
373,1.18813390798493
374,1.17201581233397
375,1.15206006718607
376,1.13709326408161
377,1.11944012705256
378,1.1014031951402
379,1.0845175788002
380,1.06839948314924
381,1.05343268004478
382,1.03884964879776
383,1.02349907383585
384,1.00776475004234
385,0.99011158998744
386,0.976296079429475
387,0.962480568871511
388,0.948665058313547
389,0.933314483351636
390,0.922185329744115
391,0.906451005950606
392,0.894170536770737
393,0.880355026212773
394,0.864620702419264
395,0.8508051918613
396,0.838140973849833
397,0.825092983980916
398,0.815115122919892
399,0.802834676765874
400,0.792856792679
401,0.782878931617976
402,0.769830941749059
403,0.757550495595041
404,0.746805090819119
405,0.737978522304592
406,0.729919474479112
407,0.717639028325095
408,0.706509851691723
409,0.697683283177196
410,0.686170357712226
411,0.676192496651202
412,0.665447091875279
413,0.658923108453746
414,0.648945224366872
415,0.638583591448398
416,0.628605730387375
417,0.621697975108392
418,0.612103862878967
419,0.60327729436444
420,0.595985767228009
421,0.587542970570931
422,0.579100150888002
423,0.575262501391062
424,0.567970997280482
425,0.561063242001499
426,0.554155486722517
427,0.545712667039589
428,0.538804911760607
429,0.531129635792577
430,0.524221880513595
431,0.51808164592366
432,0.511557662502128
433,0.503882363508247
434,0.497742151944163
435,0.491601917354229
436,0.485461682764294
437,0.479321471200211
438,0.474332529156773
439,0.468192294566839
440,0.462435831834354
441,0.459365726052312
442,0.453609263319827
443,0.448236572444791
444,0.443631402258803
445,0.438642460215366
446,0.431734704936384
447,0.427513306607845
448,0.42175684387536
449,0.415616609285425
450,0.411011439099437
451,0.405638748224401
452,0.400649806180964
453,0.396044635994976
454,0.391439465808988
455,0.387218067480449
456,0.384147938672556
457,0.379926540344018
458,0.373786305754083
459,0.369948679282994
460,0.366111029786053
461,0.36342467283561
462,0.358819502649622
463,0.353830583632035
464,0.350760454824143
465,0.345771535806556
466,0.341933886309616
467,0.338096236812675
468,0.334258610341586
469,0.328502147609101
470,0.324280726254711
471,0.321210620472669
472,0.318140514690628
473,0.316221678429232
474,0.312384051958143
475,0.307395109914705
476,0.305092524821711
477,0.304325004132663
478,0.300871126493172
479,0.296265956307184
480,0.292812078667693
481,0.290893242406297
482,0.288590657313303
483,0.285520551531262
484,0.284753030842214
485,0.28245044574922
486,0.280147860656226
487,0.27861279625228
488,0.274775146755339
489,0.272472561662345
490,0.271705040973297
491,0.270169976569351
492,0.267867391476357
493,0.260192115508327
494,0.259424594819279
495,0.255970717179788
496,0.252900588371896
497,0.251749295825399
498,0.250214254447303
499,0.247911669354309
500,0.246760376807812
501,0.242155206621824
502,0.238317557124884
503,0.236782492720937
504,0.236782492720937
505,0.234479907627943
506,0.233328615081446
507,0.229874737441955
508,0.229107216752908
509,0.229107216752908
510,0.226804631659913
511,0.225653339113416
512,0.22411827470947
513,0.222966982162973
514,0.222583233331375
515,0.221815689616476
516,0.219513104523482
517,0.218745583834434
518,0.217210519430488
519,0.217210519430488
520,0.214524185505896
521,0.211454056698003
522,0.211070307866405
523,0.207232658369464
524,0.207232658369464
525,0.203778780729973
526,0.199941131233033
527,0.200324903090482
528,0.199173610543985
529,0.196871025450991
530,0.192265855265003
531,0.191498334575955
532,0.190730790861056
533,0.187276913221565
534,0.186509392532518
535,0.184974328128571
536,0.184206807439524
537,0.179217865396086
538,0.178066572849589
539,0.177299052160542
540,0.175763987756595
541,0.173461402663601
542,0.172693881974553
543,0.172693881974553
544,0.171158817570607
545,0.168856232477613
546,0.168088711788565
547,0.166553647384619
548,0.165018606006524
549,0.163099769745128
550,0.161564728367033
551,0.160413435820535
552,0.15849459955914
553,0.157727078870092
554,0.156959558181044
555,0.156959558181044
556,0.15465697308805
557,0.153889429373152
558,0.15465697308805
559,0.152354387995056
560,0.150051802902062
561,0.152354387995056
562,0.148516738498116
563,0.147365445951619
564,0.147365445951619
565,0.146214153405122
566,0.146214153405122
567,0.145062860858625
568,0.143911568312128
569,0.142760275765631
570,0.142760275765631
571,0.142760275765631
572,0.140457690672637
573,0.138155105579643
574,0.136620041175697
575,0.136236292344098
576,0.133549935393655
577,0.133933707251104
578,0.133549935393655
579,0.13163112215811
580,0.132014870989708
581,0.133166163536205
582,0.130479829611613
583,0.130479829611613
584,0.132782414704607
585,0.132398642847158
586,0.129328537065116
587,0.130096057754164
588,0.130863578443211
589,0.131247350300661
590,0.127025951972122
591,0.127025951972122
592,0.12740970080372
593,0.126258408257223
594,0.124339595021678
595,0.126642180114673
596,0.12740970080372
597,0.123572074332631
598,0.122804530617732
599,0.120501945524738
600,0.12011819669314
601,0.118583132289193
602,0.118966904146643
603,0.118583132289193
604,0.117431839742696
605,0.114745482792253
606,0.113210441414158
607,0.113210441414158
608,0.112059148867661
609,0.112059148867661
610,0.112826669556708
611,0.115129254649702
612,0.115129254649702
613,0.115129254649702
614,0.113977962103205
615,0.111291605152762
616,0.108989020059768
617,0.107837727513271
618,0.107837727513271
619,0.106686434966774
620,0.10438384987378
621,0.105151393588678
622,0.105918914277726
623,0.103616329184732
624,0.100929972234289
625,0.100162451545241
626,0.100162451545241
627,0.0997786796877917
628,0.0967085739057499
629,0.0970923457631992
630,0.0982436383096963
631,0.0982436383096963
632,0.0974760945947976
633,0.0963248020483006
634,0.0963248020483006
635,0.0963248020483006
636,0.0959410532167025
637,0.0959410532167022
638,0.0982436383096963
639,0.098243638309696
640,0.099011158998744
641,0.0993949308561933
642,0.100929972234289
643,0.099011158998744
644,0.101697515949187
645,0.0993949308561933
646,0.0993949308561933
647,0.100162451545241
648,0.101697515949187
649,0.103232557327283
650,0.102848808495684
651,0.0997786796877917
652,0.0970923457631992
653,0.0993949308561933
654,0.10054622340269
655,0.097859866452247
656,0.0974760945947976
657,0.0947897606702052
658,0.0913358830307141
659,0.0909521111732648
660,0.0917196318623125
661,0.0928709244088095
662,0.0905683393158155
663,0.0871144616763244
664,0.086730712844726
665,0.0848118765833304
666,0.0802067063973423
667,0.0794391857082946
668,0.0786716650192471
669,0.0786716650192471
670,0.0802067063973425
671,0.0790554138508452
672,0.0794391857082946
673,0.0802067063973423
674,0.0775203724727498
675,0.0798229575657439
676,0.0813579989438393
677,0.0798229575657439
678,0.0798229575657439
679,0.0802067063973423
680,0.0790554138508452
681,0.0805904782547916
682,0.0809742501122409
683,0.0798229575657439
684,0.0786716650192469
685,0.0802067063973423
686,0.0798229575657439
687,0.0790554138508452
688,0.0782878931617975
689,0.0763690799262528
690,0.0782878931617973
691,0.0763690799262528
692,0.0775203724727498
693,0.0748340155223065
694,0.0756015362113542
695,0.0767528287578512
696,0.0756015362113542
697,0.0729152022867618
698,0.0744502436648572
699,0.0744502436648572
700,0.0752177873797558
701,0.0740664948332588
702,0.0709963660253661
703,0.0721476585718631
704,0.0706126171937679
705,0.0717639097402647
706,0.0717639097402647
707,0.0729152022867618
708,0.0729152022867618
709,0.0717639097402645
710,0.0694613246472707
711,0.0698450734788691
712,0.0725314304293124
713,0.0732989511183601
714,0.0694613246472707
715,0.0690775527898214
716,0.0698450734788691
717,0.0721476585718631
718,0.0686937809323718
719,0.0671587395542766
720,0.0671587395542766
721,0.0679262602433241
722,0.0686937809323721
723,0.0667749676968273
724,0.0644723826038335
725,0.0652399032928812
726,0.0656236751503301
727,0.0637048619147856
728,0.0648561544612828
729,0.0637048619147856
730,0.0660074470077796
731,0.0671587395542766
732,0.0694613246472707
733,0.0683100321007739
734,0.0656236751503301
735,0.0663911958393778
736,0.0660074470077794
737,0.0667749676968271
738,0.0675424883858753
739,0.0660074470077794
740,0.0648561544612824
741,0.0652399032928808
742,0.0675424883858746
743,0.0671587395542769
744,0.0694613246472707
745,0.0660074470077801
746,0.0663911958393778
747,0.0671587395542769
748,0.0625535693682888
749,0.0629373181998869
750,0.0633210900573363
751,0.0633210900573363
752,0.0621697975108388
753,0.0621697975108388
754,0.0621697975108388
755,0.059867212417845
756,0.059867212417845
757,0.059867212417845
758,0.0606347331068927
759,0.0575646273248505
760,0.0587159198713482
761,0.059867212417845
762,0.0583321480138989
763,0.0594834405603956
764,0.059867212417845
765,0.056029562920905
766,0.0556458140893066
767,0.0544945215428092
768,0.0521919364498153
769,0.0487380588103247
770,0.0502731001884199
771,0.0452841811708334
772,0.0483542869528747
773,0.0498893513568215
774,0.0498893513568208
775,0.0487380588103241
776,0.0464354737173302
777,0.0475867662638277
778,0.0468192225489286
779,0.0464354737173302
780,0.0468192225489286
781,0.0441328886243357
782,0.0464354737173302
783,0.0433653449094373
784,0.0422140523629403
785,0.0437491167668871
786,0.0406790109848451
787,0.0406790109848451
788,0.0399114672699465
789,0.0422140523629403
790,0.0433653449094378
791,0.0422140523629403
792,0.0422140523629403
793,0.0452841811708334
794,0.0418303035313419
795,0.0406790109848451
796,0.0433653449094378
797,0.0425978242203896
798,0.0395277184383476
799,0.0406790109848451
800,0.0399114672699465
